Freq[Hz]     dBSPL  Phase[Deg]
5.00000     -9.548    26.349
5.07273     -9.512    28.947
5.14651     -9.490    31.630
5.22137     -9.503    34.553
5.29732     -9.517    37.476
5.37437     -9.531    40.398
5.45254     -9.545    43.321
5.53185     -9.558    46.591
5.61231     -9.569    50.229
5.69394     -9.580    53.867
5.77676     -9.592    57.506
5.86079     -9.602    61.152
5.94604     -9.516    65.304
6.03252     -9.430    69.456
6.12027     -9.344    73.608
6.20929     -9.259    77.760
6.29961     -9.096    81.668
6.39124     -8.916    85.522
6.48420     -8.736    89.375
6.57851     -8.556    93.229
6.67420     -8.408    96.632
6.77128     -8.264    99.961
6.86977     -8.121   103.290
6.96969     -7.992   106.651
7.07107     -7.978   110.247
7.17392     -7.964   113.844
7.27827     -7.950   117.440
7.38413     -7.961   121.828
7.49154     -7.992   126.827
7.60050     -8.023   131.826
7.71105     -8.017   137.048
7.82321     -7.849   143.247
7.93701     -7.682   149.446
8.05245     -7.514   155.645
8.16958     -7.131   161.217
8.28841     -6.739   166.765
8.40896     -6.348   172.313
8.53128     -5.991   176.899
8.65537     -5.638  -178.640
8.78126     -5.286  -174.179
8.90899     -5.077  -169.400
9.03857     -4.877  -164.600
9.17004     -4.675  -159.629
9.30342     -4.447  -153.300
9.43874     -4.219  -146.972
9.57603     -3.885  -140.449
9.71532     -3.389  -133.628
9.85663     -2.893  -126.808
10.0000     -2.331  -120.836
10.1455     -1.751  -115.102
10.2930     -1.195  -109.460
10.4427     -0.704  -104.078
10.5946     -0.214   -98.697
10.7487      0.381   -92.605
10.9051      0.997   -86.371
11.0637      1.809   -80.506
11.2246      2.829   -75.030
11.3879      3.894   -70.291
11.5535      5.123   -68.238
11.7216      6.350   -66.245
11.8921      7.402   -67.756
12.0650      8.455   -69.268
12.2405      9.164   -73.018
12.4186      9.829   -77.058
12.5992     10.082   -82.437
12.7825     10.244   -88.113
12.9684      9.874   -94.565
13.1570      9.381  -101.198
13.3484      8.024  -107.881
13.5426      6.526  -114.571
13.7395      2.830  -117.166
13.9394     -0.761  -112.431
14.1421     -2.900   -53.129
14.3478     -2.623   -11.598
14.5565      2.850    -8.291
14.7683      6.439   -11.689
14.9831      8.572   -20.269
15.2010      9.544   -30.600
15.4221     10.131   -41.438
15.6464      9.895   -53.187
15.8740      9.048   -65.543
16.1049      7.713   -78.383
16.3392      4.684   -93.232
16.5768     -0.811  -116.486
16.8179     -9.793  -151.840
17.0626     -5.232   -28.746
17.3107      0.036    50.499
17.5625      3.720    31.865
17.8180      5.044    15.642
18.0771      5.521    -0.329
18.3401      5.206   -16.193
18.6068      3.855   -31.929
18.8775      1.427   -46.389
19.1521     -2.462   -55.143
19.4306     -7.593   -51.535
19.7133     -7.714     4.317
20.0000     -3.240    17.247
20.2909      1.210    11.611
20.5860      4.108    -0.416
20.8855      6.125   -12.599
21.1893      7.474   -22.937
21.4975      8.414   -31.085
21.8102      9.041   -36.895
22.1274      9.419   -40.122
22.4492      9.637   -40.454
22.7758      9.833   -37.568
23.1071     10.234   -31.507
23.4432     11.120   -23.586
23.7841     12.551   -16.788
24.1301     14.176   -12.778
24.4811     15.704   -11.071
24.8372     17.018   -10.472
25.1984     18.149    -9.868
25.5649     19.221    -8.738
25.9368     20.364    -7.396
26.3141     21.609    -6.686
26.6968     22.875    -7.243
27.0851     24.035    -9.030
27.4791     25.009   -11.453
27.8788     25.802   -13.686
28.2843     26.504   -15.190
28.6957     27.227   -15.929
29.1131     28.050   -16.342
29.5365     28.979   -17.012
29.9661     29.963   -18.294
30.4020     30.942   -20.197
30.8442     31.876   -22.515
31.2929     32.769   -24.939
31.7480     33.636   -27.323
32.2098     34.494   -29.615
32.6783     35.362   -31.833
33.1536     36.241   -34.042
33.6359     37.130   -36.277
34.1251     38.029   -38.547
34.6215     38.937   -40.863
35.1250     39.858   -43.276
35.6359     40.789   -45.915
36.1543     41.712   -48.809
36.6802     42.612   -51.917
37.2137     43.488   -55.145
37.7550     44.360   -58.445
38.3041     45.245   -61.918
38.8613     46.145   -65.681
39.4265     47.045   -69.853
40.0000     47.935   -74.385
40.5818     48.809   -79.257
41.1721     49.660   -84.472
41.7710     50.475   -89.990
42.3785     51.228   -95.733
42.9949     51.918  -101.496
43.6203     52.556  -107.180
44.2548     53.152  -112.836
44.8985     53.700  -118.595
45.5515     54.177  -124.454
46.2141     54.583  -130.326
46.8863     54.933  -136.200
47.5683     55.232  -142.174
48.2602     55.467  -148.205
48.9621     55.647  -154.082
49.6743     55.806  -159.692
50.3968     55.964  -165.108
51.1299     56.113  -170.340
51.8736     56.246  -175.255
52.6281     56.374  -179.803
53.3936     56.491   175.963
54.1702     56.586   172.040
54.9581     56.662   168.372
55.7575     56.718   164.778
56.5685     56.746   161.184
57.3914     56.756   157.588
58.2261     56.765   153.931
59.0730     56.780   150.254
59.9323     56.817   146.694
60.8040     56.896   143.281
61.6884     57.017   140.024
62.5857     57.168   136.897
63.4960     57.322   133.875
64.4196     57.454   131.047
65.3566     57.571   128.427
66.3073     57.675   125.853
67.2717     57.763   123.301
68.2502     57.859   120.768
69.2429     57.977   118.146
70.2501     58.115   115.401
71.2719     58.267   112.594
72.3086     58.429   109.774
73.3603     58.590   106.964
74.4274     58.738   104.200
75.5099     58.872   101.591
76.6083     59.014    99.154
77.7226     59.169    96.749
78.8531     59.334    94.351
80.0000     59.514    91.824
81.1636     59.665    89.136
82.3442     59.813    86.568
83.5419     60.003    83.814
84.7570     60.192    80.795
85.9899     60.385    77.812
87.2406     60.594    74.909
88.5096     60.818    72.038
89.7970     61.030    69.048
91.1031     61.204    65.859
92.4282     61.308    62.620
93.7726     61.401    59.721
95.1366     61.536    56.956
96.5204     61.701    54.356
97.9243     61.897    51.785
99.3486     62.080    49.013
100.794     62.247    45.999
102.260     62.410    42.633
103.747     62.602    39.039
105.256     62.829    35.405
106.787     63.068    31.854
108.340     63.260    28.492
109.916     63.401    25.369
111.515     63.518    22.235
113.137     63.650    18.929
114.783     63.797    15.379
116.452     63.944    11.839
118.146     64.098     8.312
119.865     64.244     4.661
121.608     64.391     0.898
123.377     64.547    -2.837
125.171     64.692    -6.514
126.992     64.812   -10.163
128.839     64.904   -14.036
130.713     64.961   -18.214
132.615     64.981   -22.278
134.543     65.019   -26.069
136.500     65.069   -30.082
138.486     65.078   -33.899
140.500     65.101   -37.950
142.544     65.157   -42.156
144.617     65.188   -45.770
146.721     65.226   -48.998
148.855     65.297   -52.932
151.020     65.305   -57.292
153.217     65.260   -61.330
155.445     65.249   -65.201
157.706     65.212   -69.179
160.000     65.109   -72.681
162.327     65.086   -75.977
164.688     65.086   -79.359
167.084     65.204   -83.214
169.514     65.178   -87.714
171.980     64.986   -91.065
174.481     64.882   -94.126
177.019     64.905   -97.474
179.594     64.983  -100.730
182.206     65.020  -103.973
184.856     65.049  -107.740
187.545     65.126  -111.603
190.273     65.240  -115.467
193.041     65.265  -119.265
195.849     65.258  -123.064
198.697     65.277  -127.804
201.587     65.174  -132.785
204.520     65.069  -136.691
207.494     64.984  -140.430
210.512     64.927  -144.113
213.574     64.848  -147.960
216.681     64.811  -150.801
219.833     64.781  -154.057
223.030     64.834  -157.835
226.274     64.739  -161.660
229.565     64.706  -165.785
232.905     64.762  -169.215
236.292     64.781  -172.502
239.729     64.768  -176.091
243.216     64.891  -179.696
246.754     64.934   176.824
250.343     64.915   172.457
253.984     64.972   168.321
257.678     64.952   164.336
261.426     64.958   160.272
265.229     64.952   155.713
269.087     64.891   151.983
273.001     64.790   147.488
276.972     64.431   144.019
281.000     64.301   142.637
285.088     64.415   139.991
289.234     64.601   136.745
293.441     64.736   132.850
297.709     64.738   128.941
302.040     64.657   124.759
306.433     64.503   122.853
310.890     64.671   119.322
315.412     64.654   116.262
320.000     64.527   113.333
324.655     64.504   110.989
329.377     64.634   108.755
334.168     64.704   105.321
339.028     64.686   102.564
343.959     64.620    99.803
348.962     64.722    97.205
354.038     64.835    95.025
359.188     64.871    91.277
364.412     64.835    87.876
369.713     64.737    85.967
375.090     64.722    83.390
380.546     64.795    81.081
386.081     64.815    77.742
391.697     64.740    75.261
397.394     64.652    71.849
403.175     64.488    70.024
409.039     64.452    67.913
414.989     64.359    65.809
421.025     64.301    63.619
427.149     64.203    61.425
433.362     64.131    59.785
439.665     64.026    57.754
446.060     63.938    56.323
452.548     63.883    54.748
459.131     63.857    53.571
465.809     63.882    51.790
472.584     63.778    50.231
479.458     63.737    49.206
486.432     63.771    48.147
493.507     63.745    46.665
500.686     63.809    45.694
507.968     63.906    44.359
515.357     64.017    42.996
522.853     64.141    41.529
530.458     64.277    39.695
538.174     64.457    37.690
546.002     64.592    35.579
553.943     64.791    32.774
562.001     64.979    30.197
570.175     65.130    27.006
578.469     65.299    23.821
586.883     65.406    20.436
595.419     65.526    16.868
604.080     65.594    13.334
612.866     65.650     9.568
621.780     65.673     5.700
630.824     65.658     1.878
640.000     65.623    -2.013
649.309     65.535    -5.579
658.753     65.422    -9.206
668.335     65.269   -12.781
678.056     65.080   -15.997
687.919     64.844   -19.115
697.925     64.608   -21.988
708.077     64.382   -24.415
718.376     64.132   -26.431
728.825     63.907   -27.948
739.426     63.730   -29.194
750.181     63.615   -29.949
761.093     63.575   -30.674
772.163     63.632   -31.321
783.394     63.779   -32.137
794.789     64.029   -33.267
806.349     64.312   -34.970
818.078     64.648   -37.238
829.977     65.000   -40.189
842.050     65.348   -43.737
854.298     65.657   -47.814
866.724     65.934   -52.523
879.330     66.156   -57.656
892.120     66.317   -63.172
905.097     66.398   -69.042
918.262     66.416   -75.222
931.618     66.339   -81.577
945.169     66.193   -88.036
958.917     65.947   -94.486
972.864     65.601  -101.002
987.015     65.171  -107.268
1001.37     64.613  -113.380
1015.94     63.973  -119.056
1030.71     63.258  -124.099
1045.71     62.473  -128.297
1060.92     61.641  -131.607
1076.35     60.875  -133.555
1092.00     60.244  -134.397
1107.89     59.803  -134.540
1124.00     59.625  -134.589
1140.35     59.724  -135.603
1156.94     59.982  -138.106
1173.77     60.342  -142.206
1190.84     60.696  -148.110
1208.16     61.008  -155.456
1225.73     61.243  -164.253
1243.56     61.386  -174.251
1261.65     61.439   174.748
1280.00     61.421   162.771
1298.62     61.320   150.155
1317.51     61.156   136.724
1336.67     60.929   122.469
1356.11     60.684   107.706
1375.84     60.445    92.242
1395.85     60.255    76.549
1416.15     60.064    61.110
1436.75     59.894    45.970
1457.65     59.679    31.048
1478.85     59.477    16.400
1500.36     59.215     2.381
1522.19     58.900   -11.248
1544.33     58.487   -24.653
1566.79     58.020   -37.867
1589.58     57.414   -50.964
1612.70     56.719   -64.385
1636.16     55.871   -78.000
1659.95     54.887   -92.310
1684.10     53.726  -108.181
1708.60     52.461  -125.285
1733.45     51.148  -145.075
1758.66     49.989  -167.246
1784.24     49.242   168.652
1810.19     49.031   145.819
1836.52     49.370   124.800
1863.24     50.055   108.859
1890.34     50.830    97.134
1917.83     51.696    88.317
1945.73     52.674    81.611
1974.03     53.769    75.723
2002.74     54.861    70.233
2031.87     55.893    64.691
2061.43     56.816    58.831
2091.41     57.664    53.216
2121.83     58.413    47.676
2152.69     59.090    42.270
2184.01     59.708    36.905
2215.77     60.255    31.335
2248.00     60.683    25.765
2280.70     60.998    20.343
2313.87     61.178    15.528
2347.53     61.290    11.281
2381.68     61.420     7.911
2416.32     61.579     4.963
2451.46     61.809     1.867
2487.12     62.028    -1.565
2523.30     62.167    -5.260
2560.00     62.211    -8.857
2597.24     62.197   -11.877
2635.01     62.155   -14.253
2673.34     62.162   -16.296
2712.23     62.198   -18.176
2751.68     62.246   -20.271
2791.70     62.286   -22.393
2832.31     62.291   -24.448
2873.50     62.254   -26.445
2915.30     62.170   -28.109
2957.70     62.042   -29.043
3000.72     61.987   -28.927
3044.37     62.130   -28.610
3088.65     62.464   -29.080
3133.58     62.795   -30.955
3179.16     63.004   -33.687
3225.40     63.066   -36.361
3272.31     63.102   -38.499
3319.91     63.143   -40.692
3368.20     63.163   -43.361
3417.19     63.044   -46.128
3466.89     62.812   -48.080
3517.32     62.606   -48.684
3568.48     62.614   -48.655
3620.39     62.867   -49.867
3673.05     63.101   -53.398
3726.47     62.989   -58.861
3780.67     62.343   -63.781
3835.67     61.369   -65.365
3891.46     60.634   -63.300
3948.06     60.370   -61.416
4005.49     60.072   -61.181
4063.75     59.542   -60.244
4122.86     59.150   -57.585
4182.82     58.855   -55.378
4243.66     58.408   -52.152
4305.39     58.221   -45.925
4368.01     58.624   -40.794
4431.55     58.994   -37.927
4496.01     59.351   -33.741
4561.40     60.252   -30.155
4627.75     61.288   -30.768
4695.06     61.962   -33.576
4763.35     62.432   -36.527
4832.64     62.771   -40.090
4902.93     62.893   -43.863
4974.24     62.881   -47.220
5046.60     62.805   -50.435
5120.00     62.652   -53.463
5194.47     62.449   -57.297
5270.03     61.909   -62.214
5346.68     60.806   -65.825
5424.45     59.362   -65.644
5503.35     57.935   -60.413
5583.40     57.120   -51.539
5664.61     56.715   -43.057
5747.01     56.584   -32.216
5830.60     57.283   -21.830
5915.41     58.301   -14.903
6001.45     59.464   -10.179
6088.74     60.616    -7.978
6177.30     61.736    -6.658
6267.15     62.934    -6.800
6358.31     64.160    -8.608
6450.80     65.381   -13.008
6544.62     66.379   -19.937
6639.82     67.103   -29.496
6736.40     67.190   -41.303
6834.38     66.564   -52.441
6933.79     65.379   -62.367
7034.64     63.395   -69.441
7136.96     60.916   -68.812
7240.77     58.904   -59.632
7346.09     58.109   -45.843
7452.94     58.634   -36.422
7561.35     58.943   -33.971
7671.33     58.624   -31.615
7782.91     58.202   -25.126
7896.12     58.420   -17.720
8010.97     59.020   -10.924
8127.49     59.895    -8.525
8245.71     60.487    -7.950
8365.65     60.825   -10.058
8487.33     60.626   -12.620
8610.78     59.608   -13.261
8736.03     58.814    -4.922
8863.09     59.304     2.959
8992.01     59.839     5.475
9122.80     60.499     7.510
9255.50     61.150     5.632
9390.12     61.521     0.506
9526.70     61.306    -5.373
9665.27     60.586   -11.700
9805.86     59.191   -16.653
9948.49     56.826   -15.040
10093.2     55.207     0.661
10240.0     55.498    13.304
10388.9     56.024    25.554
10540.1     57.377    33.943
10693.4     58.902    36.319
10848.9     60.083    34.354
11006.7     60.629    30.192
11166.8     60.476    27.151
11329.2     60.148    28.541
11494.0     60.380    32.026
11661.2     60.725    34.709
11830.8     61.719    36.230
12002.9     62.510    31.933
12177.5     62.557    26.063
12354.6     62.207    23.748
12534.3     62.166    23.264
12716.6     62.378    21.320
12901.6     62.506    17.124
13089.2     62.318    10.819
13279.6     61.599     4.705
13472.8     60.701     1.355
13668.8     60.026    -4.275
13867.6     58.193   -12.378
14069.3     55.151    -9.621
14273.9     53.703     4.837
14481.5     54.030    13.304
14692.2     54.040    12.758
14905.9     53.218    11.661
15122.7     52.488    14.432
15342.7     52.271    14.203
15565.8     51.806     7.734
15792.2     49.841    -1.342
16021.9     47.128    -1.469
16255.0     45.721     1.821
16491.4     44.934   -11.838
16731.3     41.729   -37.499
16974.7     38.349   -69.507
17221.6     37.437  -110.744
17472.1     39.739  -137.546
17726.2     42.544  -152.462
17984.0     44.808  -165.378
18245.6     46.258   179.776
18511.0     46.012   164.984
18780.2     44.734   160.152
19053.4     44.249   160.778
19330.5     43.876   158.244
19611.7     42.735   152.929
19897.0     41.441   151.525
20186.4     40.376   148.094
20480.0     38.312   135.890
20777.9     34.718   125.312
21080.1     31.750    98.724
21386.7     30.610    34.963
21697.8     32.875   -19.380
22013.4     33.026   -42.001
22333.6     32.012   -40.093
22658.4     31.760   -15.490
22988.0     35.179     0.521
23322.4     38.388     0.522
23661.6     39.226    -6.812
24005.8     38.522    -3.602
24355.0     39.114     7.731
24709.2     41.051    11.249
25068.6     41.625     8.206
25433.2     41.843     7.495
25803.2     41.931     7.103
26178.5     41.757     5.373
26559.3     41.093    -0.092
26945.6     39.119    -1.759
27337.5     37.007     7.986
27735.2     36.001    23.165
28138.6     37.870    29.399
28547.9     36.280    11.529
28963.1     30.712    -5.536
29384.4     20.454    -8.288
29811.8     28.624   122.996
30245.4     30.989   133.313
30685.3     32.482   128.621
31131.7     29.765   141.120
31584.5     28.969   165.522
32043.9     32.368  -165.191
32510.0     33.976  -174.487
32982.8     33.766  -156.552
33462.6     35.880  -156.508
33949.3     34.183  -158.435
34443.1     33.812  -137.923
34944.1     35.371  -139.727
35452.4     34.019  -143.611
35968.0     31.952  -127.266
36491.2     32.476  -121.130
37022.0     31.291  -119.322
37560.5     30.214  -106.769
38106.8     30.341  -100.628
38661.1     28.976   -97.839
39223.4     28.405   -93.678
39793.9     26.222   -91.057
