Freq[Hz]     dBSPL  Phase[Deg]
5.00000     -9.611    21.439
5.07273     -9.558    24.012
5.14651     -9.518    26.676
5.22137     -9.512    29.594
5.29732     -9.506    32.512
5.37437     -9.501    35.431
5.45254     -9.495    38.349
5.53185     -9.487    41.626
5.61231     -9.478    45.283
5.69394     -9.469    48.941
5.77676     -9.459    52.598
5.86079     -9.448    56.264
5.94604     -9.342    60.461
6.03252     -9.235    64.658
6.12027     -9.129    68.855
6.20929     -9.022    73.051
6.29961     -8.840    77.024
6.39124     -8.640    80.948
6.48420     -8.440    84.872
6.57851     -8.241    88.795
6.67420     -8.074    92.287
6.77128     -7.913    95.709
6.86977     -7.752    99.130
6.96969     -7.607   102.585
7.07107     -7.578   106.293
7.17392     -7.549   110.000
7.27827     -7.520   113.707
7.38413     -7.518   118.213
7.49154     -7.537   123.336
7.60050     -7.556   128.460
7.71105     -7.539   133.807
7.82321     -7.364   140.138
7.93701     -7.188   146.469
8.05245     -7.012   152.799
8.16958     -6.624   158.505
8.28841     -6.228   164.188
8.40896     -5.831   169.870
8.53128     -5.473   174.587
8.65537     -5.119   179.179
8.78126     -4.766  -176.229
8.90899     -4.559  -171.326
9.03857     -4.362  -166.402
9.17004     -4.162  -161.310
9.30342     -3.939  -154.870
9.43874     -3.716  -148.430
9.57603     -3.388  -141.802
9.71532     -2.899  -134.886
9.85663     -2.410  -127.970
10.0000     -1.858  -121.918
10.1455     -1.287  -116.107
10.2930     -0.740  -110.394
10.4427     -0.260  -104.957
10.5946      0.220   -99.520
10.7487      0.804   -93.391
10.9051      1.408   -87.125
11.0637      2.210   -81.238
11.2246      3.219   -75.753
11.3879      4.274   -71.009
11.5535      5.495   -68.969
11.7216      6.712   -66.988
11.8921      7.758   -68.532
12.0650      8.805   -70.076
12.2405      9.510   -73.872
12.4186     10.171   -77.959
12.5992     10.423   -83.393
12.7825     10.585   -89.126
12.9684     10.218   -95.636
13.1570      9.729  -102.328
13.3484      8.380  -109.063
13.5426      6.891  -115.805
13.7395      3.206  -118.440
13.9394     -0.373  -113.741
14.1421     -2.498   -54.457
14.3478     -2.206   -12.938
14.5565      3.283    -9.625
14.7683      6.888   -13.004
14.9831      9.038   -21.553
15.2010     10.027   -31.832
15.4221     10.629   -42.611
15.6464     10.407   -54.282
15.8740      9.573   -66.550
16.1049      8.251   -79.296
16.3392      5.230   -94.037
16.5768     -0.256  -117.182
16.8179     -9.232  -152.422
17.0626     -4.669   -29.214
17.3107      0.601    50.144
17.5625      4.286    31.619
17.8180      5.607    15.496
18.0771      6.080    -0.382
18.3401      5.758   -16.163
18.6068      4.399   -31.833
18.8775      1.963   -46.242
19.1521     -1.935   -54.960
19.4306     -7.075   -51.333
19.7133     -7.204     4.515
20.0000     -2.738    17.420
20.2909      1.706    11.742
20.5860      4.601    -0.346
20.8855      6.617   -12.605
21.1893      7.969   -23.036
21.4975      8.918   -31.285
21.8102      9.557   -37.199
22.1274      9.954   -40.527
22.4492     10.195   -40.950
22.7758     10.420   -38.136
23.1071     10.855   -32.121
23.4432     11.779   -24.212
23.7841     13.252   -17.382
24.1301     14.919   -13.293
24.4811     16.490   -11.460
24.8372     17.846   -10.688
25.1984     19.015    -9.866
25.5649     20.122    -8.480
25.9368     21.295    -6.847
26.3141     22.566    -5.818
26.6968     23.850    -6.038
27.0851     25.024    -7.474
27.4791     26.004    -9.540
27.8788     26.797   -11.417
28.2843     27.494   -12.569
28.6957     28.207   -12.968
29.1131     29.013   -13.054
29.5365     29.921   -13.415
29.9661     30.880   -14.409
30.4020     31.830   -16.049
30.8442     32.732   -18.138
31.2929     33.588   -20.365
31.7480     34.418   -22.587
32.2098     35.237   -24.758
32.6783     36.065   -26.900
33.1536     36.906   -29.078
33.6359     37.759   -31.325
34.1251     38.626   -33.650
34.6215     39.508   -36.059
35.1250     40.409   -38.594
35.6359     41.329   -41.374
36.1543     42.250   -44.415
36.6802     43.158   -47.660
37.2137     44.051   -50.998
37.7550     44.947   -54.364
38.3041     45.865   -57.839
38.8613     46.799   -61.535
39.4265     47.736   -65.551
40.0000     48.658   -69.845
40.5818     49.556   -74.401
41.1721     50.421   -79.235
41.7710     51.237   -84.338
42.3785     51.974   -89.657
42.9949     52.632   -95.026
43.6203     53.223  -100.375
44.2548     53.764  -105.786
44.8985     54.250  -111.410
45.5515     54.667  -117.242
46.2141     55.019  -123.189
46.8863     55.326  -129.221
47.5683     55.594  -135.407
48.2602     55.813  -141.666
48.9621     55.992  -147.756
49.6743     56.161  -153.536
50.3968     56.338  -159.063
51.1299     56.508  -164.341
51.8736     56.663  -169.243
52.6281     56.811  -173.730
53.3936     56.944  -177.869
54.1702     57.051   178.321
54.9581     57.138   174.778
55.7575     57.203   171.316
56.5685     57.238   167.862
57.3914     57.255   164.418
58.2261     57.268   160.927
59.0730     57.285   157.431
59.9323     57.320   154.060
60.8040     57.393   150.836
61.6884     57.505   147.758
62.5857     57.644   144.794
63.4960     57.785   141.915
64.4196     57.902   139.209
65.3566     58.005   136.690
66.3073     58.097   134.200
67.2717     58.174   131.718
68.2502     58.263   129.248
69.2429     58.379   126.695
70.2501     58.517   124.039
71.2719     58.670   121.353
72.3086     58.829   118.686
73.3603     58.983   116.045
74.4274     59.115   113.432
75.5099     59.228   110.924
76.6083     59.351   108.509
77.7226     59.497   106.060
78.8531     59.668   103.602
80.0000     59.870   101.072
81.1636     60.053    98.505
82.3442     60.229    96.206
83.5419     60.429    93.820
84.7570     60.602    91.167
85.9899     60.763    88.443
87.2406     60.937    85.649
88.5096     61.142    82.778
89.7970     61.356    79.791
91.1031     61.544    76.712
92.4282     61.657    73.715
93.7726     61.740    71.108
95.1366     61.846    68.555
96.5204     61.979    66.003
97.9243     62.164    63.359
99.3486     62.368    60.538
100.794     62.572    57.665
102.260     62.766    54.677
103.747     62.952    51.580
105.256     63.137    48.344
106.787     63.320    44.950
108.340     63.475    41.531
109.916     63.611    38.306
111.515     63.750    35.200
113.137     63.901    32.097
114.783     64.049    28.827
116.452     64.182    25.503
118.146     64.325    22.093
119.865     64.477    18.550
121.608     64.635    14.987
123.377     64.796    11.545
125.171     64.929     8.150
126.992     65.033     4.694
128.839     65.120     0.964
130.713     65.182    -3.021
132.615     65.204    -6.812
134.543     65.233   -10.327
136.500     65.274   -14.119
138.486     65.281   -17.744
140.500     65.308   -21.506
142.544     65.352   -25.327
144.617     65.354   -28.648
146.721     65.363   -31.723
148.855     65.421   -35.579
151.020     65.434   -39.822
153.217     65.401   -43.640
155.445     65.394   -47.232
157.706     65.356   -50.942
160.000     65.256   -54.168
162.327     65.240   -57.109
164.688     65.231   -60.075
167.084     65.310   -63.599
169.514     65.254   -68.065
171.980     65.098   -71.401
174.481     65.050   -74.020
177.019     65.070   -76.636
179.594     65.083   -79.407
182.206     65.083   -82.603
184.856     65.137   -86.190
187.545     65.225   -89.546
190.273     65.302   -92.949
193.041     65.293   -96.591
195.849     65.296  -100.281
198.697     65.343  -104.664
201.587     65.246  -109.143
204.520     65.131  -112.634
207.494     65.047  -115.988
210.512     64.985  -119.170
213.574     64.888  -122.605
216.681     64.849  -125.104
219.833     64.815  -127.909
223.030     64.864  -131.326
226.274     64.801  -134.587
229.565     64.731  -137.831
232.905     64.700  -141.015
236.292     64.738  -144.318
239.729     64.758  -147.273
243.216     64.846  -150.402
246.754     64.911  -153.626
250.343     64.917  -157.236
253.984     64.936  -160.761
257.678     64.914  -164.378
261.426     64.923  -167.744
265.229     64.872  -171.788
269.087     64.817  -175.281
273.001     64.747  -179.174
276.972     64.379   177.955
281.000     64.264   177.117
285.088     64.368   175.255
289.234     64.538   172.448
293.441     64.699   169.155
297.709     64.703   165.939
302.040     64.619   162.380
306.433     64.483   161.049
310.890     64.655   158.513
315.412     64.580   155.873
320.000     64.519   153.337
324.655     64.521   151.919
329.377     64.651   150.385
334.168     64.731   147.675
339.028     64.726   145.584
343.959     64.699   143.612
348.962     64.778   141.835
354.038     64.938   139.953
359.188     65.042   137.331
364.412     64.983   134.698
369.713     64.935   133.438
375.090     64.945   131.709
380.546     65.045   130.140
386.081     65.088   127.499
391.697     65.069   125.640
397.394     65.029   123.106
403.175     64.899   121.975
409.039     64.907   120.531
414.989     64.855   119.148
421.025     64.852   117.506
427.149     64.801   116.044
433.362     64.765   115.031
439.665     64.711   113.606
446.060     64.620   112.865
452.548     64.600   111.726
459.131     64.579   111.052
465.809     64.617   109.693
472.584     64.536   108.768
479.458     64.483   108.368
486.432     64.493   107.785
493.507     64.471   107.320
500.686     64.494   107.124
507.968     64.548   106.688
515.357     64.627   106.443
522.853     64.726   106.061
530.458     64.849   105.534
538.174     65.008   104.931
546.002     65.164   104.142
553.943     65.358   103.144
562.001     65.559   101.868
570.175     65.779   100.416
578.469     65.996    98.803
586.883     66.214    97.000
595.419     66.425    95.182
604.080     66.611    93.207
612.866     66.796    90.933
621.780     66.984    88.628
630.824     67.135    86.281
640.000     67.267    83.799
649.309     67.371    81.265
658.753     67.464    78.738
668.335     67.524    76.091
678.056     67.559    73.514
687.919     67.562    70.964
697.925     67.529    68.461
708.077     67.484    66.057
718.376     67.401    63.841
728.825     67.300    61.813
739.426     67.169    60.005
750.181     67.026    58.414
761.093     66.882    57.197
772.163     66.737    56.334
783.394     66.608    55.735
794.789     66.518    55.493
806.349     66.471    55.542
818.078     66.487    55.766
829.977     66.565    56.082
842.050     66.713    56.313
854.298     66.926    56.339
866.724     67.189    56.130
879.330     67.486    55.498
892.120     67.809    54.477
905.097     68.131    53.070
918.262     68.446    51.240
931.618     68.738    49.086
945.169     69.000    46.668
958.917     69.218    43.994
972.864     69.401    41.130
987.015     69.536    38.170
1001.37     69.625    35.099
1015.94     69.669    32.004
1030.71     69.664    28.984
1045.71     69.622    25.963
1060.92     69.530    23.016
1076.35     69.407    20.227
1092.00     69.238    17.619
1107.89     69.027    15.191
1124.00     68.780    13.035
1140.35     68.494    11.196
1156.94     68.176     9.782
1173.77     67.837     8.899
1190.84     67.495     8.676
1208.16     67.181     9.143
1225.73     66.936    10.349
1243.56     66.806    12.163
1261.65     66.835    14.296
1280.00     67.034    16.287
1298.62     67.387    17.783
1317.51     67.838    18.524
1336.67     68.332    18.270
1356.11     68.823    17.163
1375.84     69.268    15.281
1395.85     69.649    12.857
1416.15     69.942    10.091
1436.75     70.152     7.122
1457.65     70.292     4.131
1478.85     70.377     1.229
1500.36     70.415    -1.510
1522.19     70.429    -4.105
1544.33     70.436    -6.581
1566.79     70.437    -8.937
1589.58     70.433   -11.262
1612.70     70.418   -13.589
1636.16     70.388   -15.910
1659.95     70.341   -18.197
1684.10     70.279   -20.431
1708.60     70.204   -22.602
1733.45     70.124   -24.709
1758.66     70.040   -26.844
1784.24     69.941   -28.990
1810.19     69.807   -31.177
1836.52     69.636   -33.329
1863.24     69.412   -35.297
1890.34     69.156   -36.875
1917.83     68.897   -37.897
1945.73     68.675   -38.417
1974.03     68.526   -38.665
2002.74     68.459   -39.059
2031.87     68.433   -39.849
2061.43     68.395   -41.126
2091.41     68.286   -42.630
2121.83     68.094   -44.000
2152.69     67.850   -44.806
2184.01     67.618   -45.005
2215.77     67.457   -44.703
2248.00     67.387   -44.348
2280.70     67.374   -44.250
2313.87     67.369   -44.475
2347.53     67.355   -44.733
2381.68     67.348   -44.891
2416.32     67.384   -45.067
2451.46     67.465   -45.585
2487.12     67.528   -46.660
2523.30     67.506   -48.088
2560.00     67.376   -49.262
2597.24     67.191   -49.683
2635.01     67.074   -49.271
2673.34     67.100   -48.700
2712.23     67.222   -48.792
2751.68     67.308   -49.725
2791.70     67.268   -50.862
2832.31     67.128   -51.315
2873.50     67.016   -50.676
2915.30     67.070   -49.484
2957.70     67.294   -48.723
3000.72     67.585   -48.897
3044.37     67.861   -49.881
3088.65     68.082   -51.306
3133.58     68.257   -53.043
3179.16     68.375   -55.068
3225.40     68.415   -57.182
3272.31     68.377   -59.069
3319.91     68.317   -60.536
3368.20     68.269   -61.763
3417.19     68.227   -62.909
3466.89     68.174   -63.965
3517.32     68.139   -64.618
3568.48     68.190   -65.105
3620.39     68.342   -66.100
3673.05     68.490   -68.133
3726.47     68.504   -70.916
3780.67     68.343   -73.418
3835.67     68.111   -74.968
3891.46     67.953   -75.788
3948.06     67.889   -76.824
4005.49     67.804   -78.370
4063.75     67.629   -79.864
4122.86     67.436   -80.813
4182.82     67.312   -81.569
4243.66     67.215   -82.733
4305.39     67.051   -84.204
4368.01     66.821   -85.397
4431.55     66.584   -86.276
4496.01     66.336   -87.235
4561.40     65.985   -87.990
4627.75     65.574   -87.537
4695.06     65.329   -85.863
4763.35     65.296   -84.484
4832.64     65.339   -83.825
4902.93     65.449   -83.878
4974.24     65.495   -85.370
5046.60     65.243   -86.859
5120.00     65.013   -86.029
5194.47     65.188   -85.810
5270.03     65.263   -88.532
5346.68     64.933   -91.251
5424.45     64.488   -92.454
5503.35     64.058   -92.590
5583.40     63.819   -91.947
5664.61     63.741   -92.959
5747.01     63.438   -95.088
5830.60     63.046   -97.138
5915.41     62.475  -100.137
6001.45     61.595  -102.356
6088.74     60.648  -104.401
6177.30     59.285  -106.741
6267.15     57.567  -108.068
6358.31     54.759  -110.557
6450.80     49.433   -98.990
6544.62     46.060   -46.857
6639.82     50.108    -1.334
6736.40     55.151    13.907
6834.38     59.497    14.275
6933.79     62.476     3.890
7034.64     63.672    -8.745
7136.96     63.800   -16.575
7240.77     63.788   -20.296
7346.09     63.722   -22.189
7452.94     63.736   -22.510
7561.35     63.776   -22.630
7671.33     63.824   -22.132
7782.91     63.924   -21.234
7896.12     64.061   -21.014
8010.97     64.002   -20.501
8127.49     63.887   -19.458
8245.71     63.563   -16.635
8365.65     63.458   -10.899
8487.33     64.000    -4.428
8610.78     65.052    -1.823
8736.03     65.959    -5.694
8863.09     65.720   -11.327
8992.01     65.012   -12.171
9122.80     64.447    -9.563
9255.50     64.208    -5.731
9390.12     64.253    -2.036
9526.70     64.393     1.161
9665.27     64.663     4.447
9805.86     65.234     7.693
9948.49     66.122     8.753
10093.2     66.943     5.910
10240.0     67.137     2.018
10388.9     67.011     0.961
10540.1     67.082     1.474
10693.4     67.182     1.970
10848.9     67.326     2.806
11006.7     67.601     4.013
11166.8     67.945     4.252
11329.2     68.228     3.893
11494.0     68.473     3.443
11661.2     68.755     3.474
11830.8     69.103     1.443
12002.9     69.081    -0.896
12177.5     68.898    -1.656
12354.6     68.865    -1.108
12534.3     68.969    -1.007
12716.6     69.065    -1.711
12901.6     69.093    -2.727
13089.2     69.017    -4.155
13279.6     68.800    -5.112
13472.8     68.514    -5.580
13668.8     68.179    -5.167
13867.6     67.908    -3.660
14069.3     67.767    -1.957
14273.9     67.751    -0.360
14481.5     67.805    -0.015
14692.2     67.631    -0.003
14905.9     67.497     0.851
15122.7     67.323     1.338
15342.7     67.174     2.953
15565.8     67.202     4.046
15792.2     67.264     4.045
16021.9     67.191     3.037
16255.0     66.991     2.116
16491.4     66.692     1.447
16731.3     66.408     0.699
16974.7     66.043    -0.065
17221.6     65.557    -1.139
17472.1     65.008    -1.384
17726.2     64.418    -1.822
17984.0     63.718    -1.995
18245.6     62.853    -1.601
18511.0     61.995     0.729
18780.2     61.297     3.259
19053.4     60.589     6.022
19330.5     60.026     9.258
19611.7     59.510    12.350
19897.0     59.193    14.950
20186.4     58.887    15.097
20480.0     58.124    12.672
20777.9     56.539    15.706
21080.1     55.846    21.170
21386.7     55.235    24.548
21697.8     54.474    27.820
22013.4     53.862    31.965
22333.6     53.381    35.078
22658.4     52.777    37.320
22988.0     52.258    40.062
23322.4     51.886    40.848
23661.6     50.888    38.811
24005.8     49.736    44.130
24355.0     49.796    46.013
24709.2     49.452    43.074
25068.6     48.637    39.389
25433.2     48.027    35.888
25803.2     47.180    29.293
26178.5     46.420    24.620
26559.3     46.225    18.280
26945.6     46.533     5.641
27337.5     46.261   -12.332
27735.2     44.986   -28.240
28138.6     43.757   -36.103
28547.9     43.092   -38.035
28963.1     43.732   -42.205
29384.4     43.628   -50.027
29811.8     42.255   -55.112
30245.4     42.118   -42.597
30685.3     43.439   -43.618
31131.7     43.174   -48.469
31584.5     42.329   -49.521
32043.9     41.211   -39.612
32510.0     41.994   -34.073
32982.8     42.318   -34.929
33462.6     41.899   -38.383
33949.3     40.604   -40.637
34443.1     38.977   -32.727
34944.1     39.073   -29.008
35452.4     38.049   -25.889
35968.0     37.558   -26.858
36491.2     34.992   -29.980
37022.0     31.718   -16.333
37560.5     32.819     5.893
38106.8     33.150    -1.252
38661.1     31.636    -4.643
39223.4     30.505    -2.787
39793.9     30.074   -13.121
