Freq[Hz]     dBSPL  Phase[Deg]
5.00000     -9.780    24.243
5.07273     -9.739    26.775
5.14651     -9.710    29.393
5.22137     -9.716    32.251
5.29732     -9.721    35.108
5.37437     -9.727    37.966
5.45254     -9.732    40.824
5.53185     -9.735    44.032
5.61231     -9.735    47.612
5.69394     -9.734    51.192
5.77676     -9.734    54.771
5.86079     -9.732    58.360
5.94604     -9.633    62.465
6.03252     -9.533    66.570
6.12027     -9.434    70.675
6.20929     -9.334    74.780
6.29961     -9.156    78.654
6.39124     -8.959    82.477
6.48420     -8.763    86.300
6.57851     -8.567    90.123
6.67420     -8.402    93.511
6.77128     -8.241    96.829
6.86977     -8.080   100.146
6.96969     -7.934   103.497
7.07107     -7.902   107.102
7.17392     -7.870   110.706
7.27827     -7.838   114.311
7.38413     -7.831   118.717
7.49154     -7.844   123.744
7.60050     -7.857   128.770
7.71105     -7.834   134.022
7.82321     -7.649   140.267
7.93701     -7.464   146.511
8.05245     -7.280   152.755
8.16958     -6.880   158.387
8.28841     -6.472   163.996
8.40896     -6.065   169.605
8.53128     -5.693   174.261
8.65537     -5.326   178.795
8.78126     -4.959  -176.671
8.90899     -4.737  -171.811
9.03857     -4.525  -166.928
9.17004     -4.309  -161.875
9.30342     -4.070  -155.458
9.43874     -3.831  -149.040
9.57603     -3.486  -142.427
9.71532     -2.980  -135.513
9.85663     -2.474  -128.600
10.0000     -1.903  -122.533
10.1455     -1.315  -116.703
10.2930     -0.750  -110.965
10.4427     -0.252  -105.486
10.5946      0.246  -100.007
10.7487      0.847   -93.818
10.9051      1.469   -87.487
11.0637      2.286   -81.524
11.2246      3.311   -75.950
11.3879      4.382   -71.112
11.5535      5.617   -68.961
11.7216      6.849   -66.869
11.8921      7.906   -68.279
12.0650      8.963   -69.690
12.2405      9.677   -73.336
12.4186     10.346   -77.272
12.5992     10.602   -82.543
12.7825     10.768   -88.110
12.9684     10.402   -94.448
13.1570      9.911  -100.966
13.3484      8.557  -107.526
13.5426      7.062  -114.094
13.7395      3.367  -116.559
13.9394     -0.223  -111.692
14.1421     -2.362   -52.251
14.3478     -2.087   -10.580
14.5565      3.384    -7.127
14.7683      6.970   -10.378
14.9831      9.099   -18.808
15.2010     10.064   -28.987
15.4221     10.643   -39.673
15.6464     10.397   -51.270
15.8740      9.539   -63.476
16.1049      8.192   -76.168
16.3392      5.147   -90.875
16.5768     -0.364  -113.992
16.8179     -9.365  -149.213
17.0626     -4.825   -25.999
17.3107      0.422    53.359
17.5625      4.084    34.830
17.8180      5.382    18.694
18.0771      5.833     2.800
18.3401      5.490   -13.000
18.6068      4.110   -28.692
18.8775      1.653   -43.125
19.1521     -2.266   -51.869
19.4306     -7.428   -48.268
19.7133     -7.578     7.550
20.0000     -3.134    20.424
20.2909      1.286    14.712
20.5860      4.156     2.585
20.8855      6.146    -9.720
21.1893      7.471   -20.206
21.4975      8.390   -28.525
21.8102      8.998   -34.523
22.1274      9.363   -37.956
22.4492      9.572   -38.506
22.7758      9.762   -35.849
23.1071     10.163   -30.020
23.4432     11.053   -22.332
23.7841     12.495   -15.761
24.1301     14.133   -11.967
24.4811     15.680   -10.463
24.8372     17.015   -10.052
25.1984     18.171    -9.618
25.5649     19.271    -8.644
25.9368     20.444    -7.440
26.3141     21.722    -6.851
26.6968     23.023    -7.514
27.0851     24.221    -9.391
27.4791     25.234   -11.885
27.8788     26.070   -14.169
28.2843     26.820   -15.697
28.6957     27.593   -16.431
29.1131     28.468   -16.801
29.5365     29.452   -17.384
29.9661     30.494   -18.529
30.4020     31.529   -20.237
30.8442     32.518   -22.293
31.2929     33.461   -24.393
31.7480     34.373   -26.395
32.2098     35.269   -28.254
32.6783     36.162   -29.992
33.1536     37.056   -31.697
33.6359     37.947   -33.420
34.1251     38.834   -35.190
34.6215     39.720   -37.038
35.1250     40.608   -39.030
35.6359     41.496   -41.317
36.1543     42.372   -43.930
36.6802     43.222   -46.837
37.2137     44.048   -49.947
37.7550     44.874   -53.198
38.3041     45.721   -56.692
38.8613     46.588   -60.521
39.4265     47.469   -64.792
40.0000     48.349   -69.433
40.5818     49.223   -74.403
41.1721     50.085   -79.684
41.7710     50.919   -85.223
42.3785     51.696   -90.922
42.9949     52.413   -96.571
43.6203     53.077  -102.069
44.2548     53.697  -107.462
44.8985     54.260  -112.889
45.5515     54.744  -118.360
46.2141     55.143  -123.802
46.8863     55.472  -129.228
47.5683     55.730  -134.767
48.2602     55.908  -140.416
48.9621     56.015  -146.007
49.6743     56.089  -151.468
50.3968     56.159  -156.908
51.1299     56.224  -162.355
51.8736     56.292  -167.663
52.6281     56.384  -172.730
53.3936     56.501  -177.524
54.1702     56.634   178.059
54.9581     56.781   174.069
55.7575     56.924   170.405
56.5685     57.038   167.012
57.3914     57.116   163.859
58.2261     57.161   160.810
59.0730     57.171   157.798
59.9323     57.165   154.835
60.8040     57.172   151.850
61.6884     57.208   148.775
62.5857     57.279   145.594
63.4960     57.375   142.332
64.4196     57.480   139.186
65.3566     57.600   136.281
66.3073     57.727   133.535
67.2717     57.846   130.965
68.2502     57.966   128.540
69.2429     58.097   126.099
70.2501     58.234   123.546
71.2719     58.376   120.893
72.3086     58.524   118.178
73.3603     58.675   115.435
74.4274     58.817   112.726
75.5099     58.946   110.179
76.6083     59.085   107.810
77.7226     59.239   105.470
78.8531     59.405   103.135
80.0000     59.589   100.686
81.1636     59.749    98.125
82.3442     59.904    95.757
83.5419     60.093    93.265
84.7570     60.260    90.509
85.9899     60.419    87.707
87.2406     60.589    84.850
88.5096     60.787    81.905
89.7970     60.994    78.811
91.1031     61.181    75.599
92.4282     61.299    72.475
93.7726     61.392    69.774
95.1366     61.505    67.163
96.5204     61.643    64.560
97.9243     61.833    61.842
99.3486     62.044    58.929
100.794     62.263    55.982
102.260     62.475    52.983
103.747     62.673    49.940
105.256     62.858    46.780
106.787     63.032    43.417
108.340     63.175    39.958
109.916     63.307    36.646
111.515     63.449    33.458
113.137     63.606    30.308
114.783     63.756    27.022
116.452     63.887    23.686
118.146     64.022    20.245
119.865     64.164    16.628
121.608     64.316    12.935
123.377     64.480     9.328
125.171     64.628     5.805
126.992     64.749     2.314
128.839     64.840    -1.400
130.713     64.896    -5.434
132.615     64.916    -9.386
134.543     64.967   -13.047
136.500     65.035   -16.837
138.486     65.050   -20.356
140.500     65.060   -24.085
142.544     65.091   -28.063
144.617     65.106   -31.563
146.721     65.139   -34.678
148.855     65.207   -38.468
151.020     65.214   -42.703
153.217     65.178   -46.596
155.445     65.178   -50.231
157.706     65.138   -53.939
160.000     65.024   -57.235
162.327     65.003   -60.340
164.688     65.002   -63.462
167.084     65.097   -67.120
169.514     65.070   -71.644
171.980     64.935   -74.811
174.481     64.860   -77.197
177.019     64.813   -79.945
179.594     64.804   -83.318
182.206     64.877   -86.899
184.856     64.978   -90.231
187.545     65.022   -93.466
190.273     65.071   -97.323
193.041     65.118  -101.357
195.849     65.178  -104.927
198.697     65.225  -109.111
201.587     65.112  -113.618
204.520     64.991  -117.216
207.494     64.905  -120.689
210.512     64.843  -123.975
213.574     64.737  -127.569
216.681     64.704  -130.316
219.833     64.692  -133.254
223.030     64.744  -136.788
226.274     64.699  -140.293
229.565     64.662  -143.589
232.905     64.635  -146.775
236.292     64.677  -150.183
239.729     64.699  -153.215
243.216     64.788  -156.496
246.754     64.857  -159.839
250.343     64.863  -163.707
253.984     64.922  -167.395
257.678     64.897  -170.915
261.426     64.889  -174.633
265.229     64.885  -178.850
269.087     64.826   177.693
273.001     64.754   173.551
276.972     64.403   170.524
281.000     64.303   169.540
285.088     64.420   167.648
289.234     64.575   164.723
293.441     64.735   161.204
297.709     64.733   157.720
302.040     64.687   153.853
306.433     64.567   152.631
310.890     64.708   149.796
315.412     64.671   146.912
320.000     64.596   144.349
324.655     64.596   142.582
329.377     64.735   140.861
334.168     64.822   137.842
339.028     64.834   135.523
343.959     64.826   133.361
348.962     64.905   131.456
354.038     65.062   129.323
359.188     65.178   126.387
364.412     65.135   123.610
369.713     65.086   122.038
375.090     65.120   120.152
380.546     65.212   118.331
386.081     65.282   115.454
391.697     65.250   113.410
397.394     65.237   110.514
403.175     65.106   109.259
409.039     65.131   107.519
414.989     65.076   105.926
421.025     65.076   104.046
427.149     65.027   102.137
433.362     65.016   100.816
439.665     64.972    99.118
446.060     64.904    97.982
452.548     64.896    96.529
459.131     64.901    95.511
465.809     64.954    93.885
472.584     64.861    92.611
479.458     64.828    91.680
486.432     64.839    90.735
493.507     64.811    89.876
500.686     64.823    89.056
507.968     64.885    88.150
515.357     64.945    87.400
522.853     65.018    86.527
530.458     65.142    85.351
538.174     65.273    84.429
546.002     65.402    83.140
553.943     65.560    81.698
562.001     65.737    80.040
570.175     65.923    78.255
578.469     66.096    76.242
586.883     66.283    74.262
595.419     66.449    72.125
604.080     66.612    69.801
612.866     66.770    67.401
621.780     66.927    64.908
630.824     67.060    62.279
640.000     67.186    59.623
649.309     67.302    56.953
658.753     67.385    54.225
668.335     67.450    51.395
678.056     67.505    48.516
687.919     67.534    45.673
697.925     67.531    42.784
708.077     67.522    39.968
718.376     67.474    37.153
728.825     67.409    34.456
739.426     67.319    31.854
750.181     67.201    29.326
761.093     67.058    27.022
772.163     66.897    24.927
783.394     66.723    23.096
794.789     66.535    21.476
806.349     66.356    20.265
818.078     66.186    19.391
829.977     66.039    18.880
842.050     65.949    18.619
854.298     65.918    18.640
866.724     65.939    18.778
879.330     66.063    18.820
892.120     66.259    18.774
905.097     66.512    18.349
918.262     66.810    17.476
931.618     67.143    16.097
945.169     67.485    14.241
958.917     67.803    11.836
972.864     68.096     8.935
987.015     68.350     5.753
1001.37     68.547     2.084
1015.94     68.684    -1.770
1030.71     68.750    -5.771
1045.71     68.753    -9.991
1060.92     68.688   -14.203
1076.35     68.547   -18.341
1092.00     68.333   -22.375
1107.89     68.058   -26.287
1124.00     67.707   -29.991
1140.35     67.312   -33.454
1156.94     66.835   -36.552
1173.77     66.299   -39.431
1190.84     65.693   -41.823
1208.16     64.999   -43.768
1225.73     64.197   -45.035
1243.56     63.257   -45.178
1261.65     62.231   -43.614
1280.00     61.142   -39.220
1298.62     60.259   -31.294
1317.51     59.981   -20.046
1336.67     60.608    -8.667
1356.11     61.937    -0.674
1375.84     63.519     2.816
1395.85     65.016     2.835
1416.15     66.282     0.191
1436.75     67.317    -3.981
1457.65     68.115    -9.210
1478.85     68.697   -14.869
1500.36     69.075   -20.596
1522.19     69.281   -26.127
1544.33     69.348   -31.166
1566.79     69.321   -35.597
1589.58     69.259   -39.274
1612.70     69.210   -42.385
1636.16     69.226   -45.203
1659.95     69.299   -48.048
1684.10     69.405   -51.347
1708.60     69.500   -55.147
1733.45     69.533   -59.407
1758.66     69.463   -63.979
1784.24     69.294   -68.500
1810.19     69.027   -72.569
1836.52     68.686   -76.185
1863.24     68.329   -79.141
1890.34     68.001   -81.678
1917.83     67.720   -83.981
1945.73     67.470   -86.370
1974.03     67.213   -88.990
2002.74     66.912   -91.743
2031.87     66.558   -94.428
2061.43     66.148   -96.891
2091.41     65.709   -99.012
2121.83     65.247  -100.789
2152.69     64.772  -102.309
2184.01     64.279  -103.376
2215.77     63.772  -103.905
2248.00     63.333  -103.738
2280.70     63.003  -103.113
2313.87     62.826  -102.780
2347.53     62.728  -103.276
2381.68     62.578  -104.770
2416.32     62.284  -106.672
2451.46     61.861  -108.161
2487.12     61.394  -108.608
2523.30     61.029  -108.294
2560.00     60.812  -108.148
2597.24     60.662  -109.007
2635.01     60.455  -110.740
2673.34     60.091  -112.766
2712.23     59.630  -114.793
2751.68     59.104  -116.451
2791.70     58.464  -118.136
2832.31     57.683  -119.442
2873.50     56.756  -119.559
2915.30     55.861  -117.912
2957.70     55.165  -115.392
3000.72     54.648  -113.346
3044.37     54.091  -112.278
3088.65     53.411  -111.231
3133.58     52.669  -109.820
3179.16     51.852  -108.748
3225.40     50.726  -107.276
3272.31     49.359  -103.011
3319.91     48.147   -95.370
3368.20     47.334   -87.564
3417.19     46.193   -79.945
3466.89     45.206   -66.019
3517.32     45.591   -51.740
3568.48     46.050   -48.534
3620.39     43.807   -47.224
3673.05     39.878    -8.358
3726.47     45.337    36.890
3780.67     50.387    37.579
3835.67     52.971    33.010
3891.46     54.682    30.365
3948.06     56.169    28.247
4005.49     57.392    25.843
4063.75     58.360    24.217
4122.86     59.352    23.437
4182.82     60.373    22.013
4243.66     61.312    19.963
4305.39     62.136    17.765
4368.01     62.889    15.610
4431.55     63.623    13.837
4496.01     64.461    11.745
4561.40     65.317     7.789
4627.75     65.840     2.490
4695.06     66.011    -1.856
4763.35     66.106    -4.516
4832.64     66.228    -6.336
4902.93     66.383    -7.321
4974.24     66.641    -8.008
5046.60     66.899    -8.782
5120.00     67.230    -8.538
5194.47     67.864    -8.727
5270.03     68.519   -11.043
5346.68     69.030   -13.994
5424.45     69.496   -17.681
5503.35     69.733   -22.092
5583.40     69.778   -25.400
5664.61     69.876   -28.035
5747.01     69.949   -30.730
5830.60     70.032   -33.004
5915.41     70.152   -35.616
6001.45     70.211   -38.559
6088.74     70.180   -41.668
6177.30     70.056   -44.273
6267.15     69.974   -46.536
6358.31     69.893   -49.052
6450.80     69.821   -51.899
6544.62     69.647   -55.545
6639.82     69.393   -59.695
6736.40     68.782   -66.348
6834.38     67.147   -71.181
6933.79     65.148   -68.146
7034.64     63.670   -57.548
7136.96     63.617   -44.033
7240.77     64.442   -36.406
7346.09     65.140   -33.370
7452.94     65.667   -31.320
7561.35     66.154   -31.012
7671.33     66.389   -31.306
7782.91     66.467   -31.564
7896.12     66.517   -31.292
8010.97     66.374   -31.943
8127.49     66.020   -30.751
8245.71     65.516   -27.995
8365.65     65.269   -22.652
8487.33     65.266   -16.505
8610.78     65.837   -11.764
8736.03     66.393   -10.230
8863.09     66.682   -10.769
8992.01     66.756   -11.312
9122.80     66.587   -11.517
9255.50     66.336   -11.260
9390.12     65.989    -9.198
9526.70     65.763    -5.504
9665.27     65.939    -1.198
9805.86     66.444     2.776
9948.49     67.308     4.030
10093.2     68.017     0.509
10240.0     67.871    -2.486
10388.9     67.666    -1.257
10540.1     67.766     0.771
10693.4     68.026     2.452
10848.9     68.322     3.843
11006.7     68.654     4.700
11166.8     69.058     5.081
11329.2     69.356     4.223
11494.0     69.449     3.539
11661.2     69.549     5.177
11830.8     70.002     4.845
12002.9     70.240     3.737
12177.5     70.313     2.526
12354.6     70.415     1.910
12534.3     70.503     0.894
12716.6     70.482    -0.364
12901.6     70.386    -1.375
13089.2     70.227    -2.041
13279.6     70.094    -2.449
13472.8     69.902    -3.228
13668.8     69.557    -4.279
13867.6     68.936    -4.073
14069.3     68.264    -1.095
14273.9     67.956     4.456
14481.5     68.137     9.193
14692.2     68.505    12.613
14905.9     69.036    13.073
15122.7     69.211    11.502
15342.7     69.098    10.530
15565.8     68.871    10.402
15792.2     68.652    11.066
16021.9     68.479    12.274
16255.0     68.450    13.295
16491.4     68.415    13.147
16731.3     68.281    12.335
16974.7     67.977    11.045
17221.6     67.464    10.397
17472.1     66.905    10.923
17726.2     66.400    11.899
17984.0     65.901    12.686
18245.6     65.292    13.346
18511.0     64.548    14.865
18780.2     63.818    17.610
19053.4     63.225    21.214
19330.5     62.747    24.563
19611.7     62.355    27.100
19897.0     61.769    29.050
20186.4     61.122    31.708
20480.0     60.300    33.929
20777.9     59.147    41.490
21080.1     59.156    49.957
21386.7     59.390    53.743
21697.8     59.398    54.362
22013.4     58.960    54.456
22333.6     58.307    55.396
22658.4     57.571    57.138
22988.0     56.795    59.471
23322.4     56.058    62.037
23661.6     55.415    63.357
24005.8     54.534    63.305
24355.0     53.222    61.305
24709.2     51.093    59.235
25068.6     47.622    63.763
25433.2     44.405    83.622
25803.2     43.580   106.501
26178.5     43.330   124.042
26559.3     43.491   137.768
26945.6     43.411   150.551
27337.5     43.675   157.198
27735.2     42.349   171.217
28138.6     42.307  -166.873
28547.9     43.597  -146.563
28963.1     46.581  -133.340
29384.4     48.254  -135.936
29811.8     49.006  -138.354
30245.4     47.950  -139.656
30685.3     47.470  -127.749
31131.7     48.075  -120.246
31584.5     48.382  -114.628
32043.9     49.044  -113.191
32510.0     48.729  -114.396
32982.8     48.088  -112.444
33462.6     47.345  -113.044
33949.3     45.958  -107.892
34443.1     45.203  -102.253
34944.1     43.828   -95.899
35452.4     43.446   -84.645
35968.0     43.242   -82.393
36491.2     42.373   -76.151
37022.0     42.194   -74.982
37560.5     40.713   -77.076
38106.8     38.414   -71.086
38661.1     37.046   -60.845
39223.4     35.625   -55.335
39793.9     34.047   -44.163
