Freq[Hz]     dBSPL  Phase[Deg]
5.00000     -5.403    43.603
5.07273     -5.358    46.524
5.14651     -5.326    49.539
5.22137     -5.332    52.818
5.29732     -5.337    56.097
5.37437     -5.343    59.376
5.45254     -5.348    62.655
5.53185     -5.353    66.296
5.61231     -5.358    70.321
5.69394     -5.362    74.346
5.77676     -5.367    78.371
5.86079     -5.369    82.404
5.94604     -5.279    86.969
6.03252     -5.188    91.534
6.12027     -5.098    96.098
6.20929     -5.007   100.663
6.29961     -4.842   105.001
6.39124     -4.660   109.289
6.48420     -4.478   113.576
6.57851     -4.295   117.864
6.67420     -4.146   121.714
6.77128     -4.003   125.493
6.86977     -3.859   129.272
6.96969     -3.731   133.084
7.07107     -3.718   137.141
7.17392     -3.705   141.199
7.27827     -3.693   145.257
7.38413     -3.706   150.111
7.49154     -3.739   155.579
7.60050     -3.772   161.048
7.71105     -3.768   166.740
7.82321     -3.604   173.414
7.93701     -3.439  -179.911
8.05245     -3.274  -173.236
8.16958     -2.893  -167.182
8.28841     -2.504  -161.152
8.40896     -2.114  -155.122
8.53128     -1.758  -150.048
8.65537     -1.406  -145.098
8.78126     -1.055  -140.147
8.90899     -0.844  -134.869
9.03857     -0.644  -129.569
9.17004     -0.439  -124.096
9.30342     -0.207  -117.253
9.43874      0.025  -110.410
9.57603      0.364  -103.364
9.71532      0.868   -96.009
9.85663      1.371   -88.654
10.0000      1.943   -82.126
10.1455      2.535   -75.830
10.2930      3.103   -69.617
10.4427      3.609   -63.640
10.5946      4.114   -57.662
10.7487      4.726   -50.940
10.9051      5.359   -44.069
11.0637      6.189   -37.542
11.2246      7.230   -31.380
11.3879      8.316   -25.942
11.5535      9.568   -23.147
11.7216     10.817   -20.410
11.8921     11.893   -21.117
12.0650     12.968   -21.824
12.2405     13.699   -24.713
12.4186     14.386   -27.884
12.5992     14.659   -32.341
12.7825     14.839   -37.083
12.9684     14.485   -42.551
13.1570     14.006   -48.187
13.3484     12.658   -53.825
13.5426     11.169   -59.463
13.7395      7.473   -60.962
13.9394      3.882   -55.124
14.1421      1.735     5.312
14.3478      2.001    47.981
14.5565      7.457    52.443
14.7683     11.024    50.203
14.9831     13.132    42.785
15.2010     14.071    33.611
15.4221     14.622    23.926
15.6464     14.344    13.319
15.8740     13.453     2.091
16.1049     12.071    -9.632
16.3392      8.989   -23.393
16.5768      3.443   -45.573
16.8179     -5.593   -79.873
17.0626     -1.088    44.244
17.3107      4.125   124.494
17.5625      7.755   106.845
17.8180      9.026    91.577
18.0771      9.452    76.545
18.3401      9.087    61.603
18.6068      7.691    46.768
18.8775      5.223    33.197
19.1521      1.297    25.324
19.4306     -3.865    29.807
19.7133     -4.010    86.534
20.0000      0.445   100.345
20.2909      4.883    95.604
20.5860      7.775    84.489
20.8855      9.792    73.245
21.1893     11.148    63.888
21.4975     12.104    56.768
21.8102     12.749    52.040
22.1274     13.152    49.954
22.4492     13.396    50.831
22.7758     13.620    54.998
23.1071     14.048    62.414
23.4432     14.959    71.764
23.7841     16.411    80.067
24.1301     18.050    85.645
24.4811     19.586    88.973
24.8372     20.899    91.234
25.1984     22.020    93.531
25.5649     23.073    96.369
25.9368     24.189    99.425
26.3141     25.401   101.843
26.6968     26.627   102.980
27.0851     27.742   102.865
27.4791     28.668   102.089
27.8788     29.411   101.474
28.2843     30.066   101.563
28.6957     30.742   102.394
29.1131     31.522   103.537
29.5365     32.412   104.415
29.9661     33.365   104.684
30.4020     34.317   104.346
30.8442     35.231   103.622
31.2929     36.108   102.830
31.7480     36.965   102.125
32.2098     37.815   101.565
32.6783     38.676   101.143
33.1536     39.548   100.787
33.6359     40.427   100.454
34.1251     41.313   100.133
34.6215     42.203    99.800
35.1250     43.104    99.390
35.6359     44.010    98.769
36.1543     44.908    97.898
36.6802     45.783    96.815
37.2137     46.637    95.616
37.7550     47.490    94.358
38.3041     48.365    92.956
38.8613     49.261    91.310
39.4265     50.165    89.330
40.0000     51.064    87.083
40.5818     51.949    84.614
41.1721     52.810    81.940
41.7710     53.628    79.094
42.3785     54.370    76.162
42.9949     55.029    73.315
43.6203     55.613    70.621
44.2548     56.129    67.985
44.8985     56.567    65.220
45.5515     56.911    62.276
46.2141     57.160    59.186
46.8863     57.340    55.912
47.5683     57.464    52.310
48.2602     57.532    48.417
48.9621     57.568    44.463
49.6743     57.619    40.619
50.3968     57.715    36.904
51.1299     57.850    33.427
51.8736     58.016    30.443
52.6281     58.208    28.101
53.3936     58.404    26.404
54.1702     58.575    25.351
54.9581     58.708    24.845
55.7575     58.790    24.618
56.5685     58.806    24.487
57.3914     58.771    24.346
58.2261     58.710    24.051
59.0730     58.644    23.588
59.9323     58.605    23.108
60.8040     58.625    22.699
61.6884     58.711    22.462
62.5857     58.845    22.457
63.4960     58.991    22.724
64.4196     59.110    23.345
65.3566     59.200    24.291
66.3073     59.260    25.320
67.2717     59.292    26.337
68.2502     59.332    27.305
69.2429     59.406    28.142
70.2501     59.521    28.894
71.2719     59.667    29.722
72.3086     59.826    30.740
73.3603     59.973    31.964
74.4274     60.084    33.352
75.5099     60.154    34.897
76.6083     60.217    36.515
77.7226     60.297    38.037
78.8531     60.409    39.505
80.0000     60.562    40.914
81.1636     60.706    42.360
82.3442     60.842    44.176
83.5419     60.998    45.989
84.7570     61.118    47.559
85.9899     61.223    49.033
87.2406     61.350    50.402
88.5096     61.524    51.713
89.7970     61.727    53.013
91.1031     61.915    54.397
92.4282     62.025    56.059
93.7726     62.090    58.252
95.1366     62.161    60.555
96.5204     62.250    62.837
97.9243     62.396    64.995
99.3486     62.575    67.011
100.794     62.769    69.108
102.260     62.954    71.289
103.747     63.114    73.525
105.256     63.251    75.678
106.787     63.371    77.607
108.340     63.468    79.411
109.916     63.570    81.385
111.515     63.700    83.594
113.137     63.856    86.019
114.783     64.003    88.495
116.452     64.120    91.052
118.146     64.234    93.572
119.865     64.354    95.969
121.608     64.489    98.385
123.377     64.635   101.033
125.171     64.754   103.893
126.992     64.829   106.821
128.839     64.872   109.485
130.713     64.892   111.813
132.615     64.901   114.334
134.543     64.947   117.494
136.500     65.002   120.757
138.486     64.997   123.633
140.500     64.988   126.900
142.544     65.001   130.576
144.617     64.994   134.109
146.721     65.002   137.962
148.855     65.057   141.712
151.020     65.071   145.144
153.217     65.022   149.129
155.445     64.959   153.303
157.706     64.842   156.984
160.000     64.711   161.351
162.327     64.749   166.129
164.688     64.813   170.704
167.084     64.950   175.628
169.514     64.938  -179.457
171.980     64.734  -173.061
174.481     64.505  -167.155
177.019     64.369  -162.709
179.594     64.497  -158.233
182.206     64.758  -151.632
184.856     64.811  -144.312
187.545     64.744  -138.826
190.273     64.846  -133.570
193.041     64.947  -127.444
195.849     64.898  -121.066
198.697     64.881  -115.719
201.587     64.846  -110.329
204.520     64.745  -103.347
207.494     64.614   -96.662
210.512     64.578   -89.399
213.574     64.513   -81.952
216.681     64.449   -74.325
219.833     64.425   -66.682
223.030     64.517   -58.739
226.274     64.446   -50.645
229.565     64.411   -42.891
232.905     64.466   -34.611
236.292     64.513   -26.183
239.729     64.524   -17.188
243.216     64.633    -8.336
246.754     64.702     0.384
250.343     64.737     9.296
253.984     64.771    18.364
257.678     64.786    27.171
261.426     64.847    37.195
265.229     64.797    46.488
269.087     64.755    56.163
273.001     64.691    65.417
276.972     64.350    75.556
281.000     64.271    88.464
285.088     64.426   100.940
289.234     64.637   112.747
293.441     64.802   123.861
297.709     64.842   134.942
302.040     64.801   145.959
306.433     64.619   159.793
310.890     64.794   172.160
315.412     64.824  -174.951
320.000     64.783  -161.774
324.655     64.812  -147.692
329.377     64.961  -133.662
334.168     65.054  -119.795
339.028     65.098  -105.218
343.959     65.086   -90.457
348.962     65.187   -75.610
354.038     65.357   -60.818
359.188     65.458   -46.365
364.412     65.441   -31.258
369.713     65.382   -14.593
375.090     65.384     1.299
380.546     65.482    18.015
386.081     65.514    33.741
391.697     65.435    50.727
397.394     65.373    67.509
403.175     65.167    85.199
409.039     65.119   103.024
414.989     64.984   121.479
421.025     64.884   140.061
427.149     64.655   158.383
433.362     64.477   177.080
439.665     64.244  -163.258
446.060     63.956  -142.611
452.548     63.628  -122.616
459.131     63.354  -101.434
465.809     63.050   -79.862
472.584     62.571   -57.769
479.458     62.140   -34.759
486.432     61.659   -10.802
493.507     61.127    14.098
500.686     60.694    40.954
507.968     60.268    68.075
515.357     59.915    96.307
522.853     59.666   125.411
530.458     59.574   155.693
538.174     59.661  -174.326
546.002     59.924  -144.452
553.943     60.287  -114.622
562.001     60.819   -84.932
570.175     61.345   -55.620
578.469     61.969   -26.336
586.883     62.519     2.066
595.419     63.061    29.605
604.080     63.579    57.315
612.866     64.047    85.090
621.780     64.444   113.066
630.824     64.782   141.156
640.000     65.056   169.027
649.309     65.223  -163.410
658.753     65.316  -135.654
668.335     65.349  -106.908
678.056     65.260   -78.297
687.919     65.056   -49.275
697.925     64.710   -20.058
708.077     64.241     9.061
718.376     63.582    38.714
728.825     62.656    68.603
739.426     61.414    98.661
750.181     59.713   128.914
761.093     57.239   158.504
772.163     53.414  -174.263
783.394     45.745  -164.049
794.789     44.498   126.749
806.349     53.489   128.673
818.078     58.248   156.771
829.977     61.408  -171.057
842.050     63.753  -137.519
854.298     65.589  -102.954
866.724     67.056   -68.288
879.330     68.288   -32.322
892.120     69.290     4.252
905.097     70.120    41.390
918.262     70.779    79.206
931.618     71.281   117.572
945.169     71.649   156.475
958.917     71.885  -163.950
972.864     71.977  -123.733
987.015     71.936   -82.890
1001.37     71.738   -40.816
1015.94     71.398     1.955
1030.71     70.901    45.041
1045.71     70.218    89.497
1060.92     69.336   135.569
1076.35     68.244  -177.696
1092.00     66.930  -129.343
1107.89     65.340   -78.265
1124.00     63.529   -24.009
1140.35     61.602    34.636
1156.94     59.933    99.491
1173.77     59.099   168.023
1190.84     59.240  -124.559
1208.16     59.857   -61.454
1225.73     60.409    -2.331
1243.56     60.671    54.076
1261.65     60.522   108.327
1280.00     59.904   160.504
1298.62     58.800  -149.744
1317.51     57.219  -103.386
1336.67     55.447   -62.989
1356.11     54.329   -30.232
1375.84     54.887     1.168
1395.85     56.669    41.691
1416.15     58.319    91.346
1436.75     59.470   146.539
1457.65     60.124  -154.088
1478.85     60.322   -90.834
1500.36     60.065   -24.556
1522.19     59.452    45.909
1544.33     58.662   121.450
1566.79     57.921  -157.864
1589.58     57.709   -73.180
1612.70     58.041    11.749
1636.16     58.677    95.245
1659.95     59.218   176.880
1684.10     59.483  -102.033
1708.60     59.319   -20.170
1733.45     58.772    63.373
1758.66     57.913   151.191
1784.24     57.120  -116.097
1810.19     56.763   -19.958
1836.52     57.114    76.996
1863.24     57.837   171.190
1890.34     58.410   -97.736
1917.83     58.540    -8.764
1945.73     58.091    79.170
1974.03     56.915   167.756
2002.74     54.813  -102.838
2031.87     51.311   -11.261
2061.43     45.087    87.651
2091.41     36.547  -111.648
2121.83     42.947    52.869
2152.69     46.912   155.799
2184.01     47.828  -105.167
2215.77     46.511    -3.942
2248.00     42.642   102.749
2280.70     35.547  -110.231
2313.87     39.285    68.504
2347.53     44.849  -170.267
2381.68     47.213   -60.052
2416.32     47.525    50.394
2451.46     46.236   164.933
2487.12     43.192   -70.129
2523.30     39.676    79.266
2560.00     40.593  -118.482
2597.24     43.372    23.120
2635.01     44.528   156.298
2673.34     44.614   -67.364
2712.23     44.858    76.566
2751.68     45.808  -138.378
2791.70     46.840     0.261
2832.31     46.900   134.883
2873.50     45.232   -89.068
2915.30     41.258    55.374
2957.70     37.291  -123.253
3000.72     39.958    59.380
3044.37     42.186  -150.551
3088.65     41.101    -5.663
3133.58     36.529   152.593
3179.16     33.540    -1.977
3225.40     36.854  -178.677
3272.31     35.013   -19.754
3319.91     28.363  -141.516
3368.20     41.134    76.516
3417.19     47.015  -127.094
3466.89     49.576    31.179
3517.32     50.422  -163.741
3568.48     50.294     8.385
3620.39     49.891  -172.853
3673.05     49.222    11.139
3726.47     48.214  -159.003
3780.67     47.498    40.152
3835.67     47.754  -119.782
3891.46     47.820    76.574
3948.06     46.460   -84.019
4005.49     44.949   130.203
4063.75     45.780   -11.461
4122.86     46.532  -167.412
4182.82     44.896    33.676
4243.66     40.558  -112.623
4305.39     35.665   120.997
4368.01     25.485    20.586
4431.55     33.947    12.572
4496.01     43.696  -128.577
4561.40     47.717    90.537
4627.75     49.836   -46.408
4695.06     50.530  -179.152
4763.35     49.735    56.592
4832.64     49.012   -51.734
4902.93     50.318  -157.971
4974.24     51.191    84.679
5046.60     49.911   -33.507
5120.00     46.778  -142.395
5194.47     42.595   115.900
5270.03     32.596    10.614
5346.68     27.347   112.033
5424.45     38.479    15.056
5503.35     42.997   -59.942
5583.40     45.498  -141.345
5664.61     45.886   150.290
5747.01     47.677    90.234
5830.60     49.071    21.491
5915.41     48.479   -40.650
6001.45     47.538   -92.617
6088.74     45.182  -134.359
6177.30     45.996  -146.369
6267.15     49.983   172.122
6358.31     50.309   119.661
6450.80     48.295    74.573
6544.62     42.284    38.885
6639.82     38.072    75.861
6736.40     41.628    57.848
6834.38     31.943   -28.647
6933.79     39.330  -178.975
7034.64     45.669   146.698
7136.96     43.715   125.898
7240.77     39.981   169.487
7346.09     42.222  -155.199
7452.94     44.281  -109.515
7561.35     47.134   -92.348
7671.33     45.353   -49.006
7782.91     48.331    -0.935
7896.12     48.101    40.640
8010.97     49.762    99.695
8127.49     50.265   144.656
8245.71     48.813  -150.438
8365.65     48.928   -79.015
8487.33     47.788    -5.069
8610.78     45.838    87.740
8736.03     47.467  -166.971
8863.09     48.942   -82.049
8992.01     47.739     9.926
9122.80     44.993   110.061
9255.50     40.938  -113.154
9390.12     41.508    17.336
9526.70     37.989   165.363
9665.27     37.467   -30.437
9805.86     39.770   146.856
9948.49     42.920   -49.948
10093.2     45.338   111.290
10240.0     46.681   -81.804
10388.9     47.164    92.987
10540.1     47.304   -85.093
10693.4     46.505   109.312
10848.9     46.170   -49.156
11006.7     45.445   164.829
11166.8     44.524    18.821
11329.2     40.924   -96.542
11494.0     43.410   155.528
11661.2     43.682    43.897
11830.8     43.694   -63.615
12002.9     43.975  -159.367
12177.5     40.453   117.164
12354.6     41.052    50.137
12534.3     40.547   -12.213
12716.6     38.565   -60.172
12901.6     37.745   -95.863
13089.2     38.546  -125.837
13279.6     38.130  -143.997
13472.8     39.802  -169.715
13668.8     35.939   176.755
13867.6     34.472  -158.910
14069.3     35.753  -139.365
14273.9     35.931  -116.881
14481.5     33.348   -70.879
14692.2     34.992   -46.404
14905.9     28.847    42.066
15122.7     31.471   104.941
15342.7     29.752  -178.463
15565.8     27.818  -105.919
15792.2     23.568   171.336
16021.9     24.293    27.452
16255.0     25.723   -40.559
16491.4     25.411   108.297
16731.3     27.393  -108.867
16974.7     22.373  -158.292
17221.6     23.637   -80.622
17472.1     28.346    95.511
17726.2     26.455   -97.565
17984.0     17.906   -53.835
18245.6     23.836    58.678
18511.0     25.442   -64.177
18780.2     25.287  -161.409
19053.4     27.513    56.954
19330.5     24.790    18.123
19611.7     25.689   -20.320
19897.0     26.924   -92.572
20186.4     26.235  -136.425
20480.0     22.110   -78.890
20777.9     22.095  -171.830
21080.1     21.728   117.869
21386.7     22.098  -153.209
21697.8     18.309    44.210
22013.4     17.725   -78.004
22333.6     19.865    30.829
22658.4     19.353    -3.990
22988.0     20.774     9.342
23322.4     22.231    54.600
23661.6     21.554    84.159
24005.8     23.984   114.004
24355.0     24.659   -69.112
24709.2     22.375     7.260
25068.6     19.392  -149.219
25433.2     21.467   -71.669
25803.2     25.911  -146.342
26178.5     26.775   117.245
26559.3     19.288    32.830
26945.6     13.427  -136.763
27337.5     18.449   -33.378
27735.2     18.070   -17.648
28138.6     14.871   -42.409
28547.9     19.590  -163.599
28963.1     19.038  -155.482
29384.4     15.723    77.530
29811.8     21.085   117.364
30245.4     21.748    74.640
30685.3     19.337   103.991
31131.7     19.022   -46.667
31584.5     19.145   -66.155
32043.9     19.422   -40.289
32510.0     16.836   152.257
32982.8     20.732   104.505
33462.6     18.595   -19.517
33949.3     20.190    62.048
34443.1     19.171  -152.369
34944.1     17.100   -93.814
35452.4     15.567  -111.904
35968.0     17.801   162.996
36491.2     17.317  -117.678
37022.0     19.131   -34.200
37560.5     17.494    92.468
38106.8     17.196   110.589
38661.1     18.121   -91.897
39223.4     18.012    11.952
39793.9     15.872    17.026
