Freq[Hz]     dBSPL  Phase[Deg]
5.00000    -10.384    26.438
5.07273    -10.359    28.865
5.14651    -10.345    31.371
5.22137    -10.363    34.093
5.29732    -10.381    36.814
5.37437    -10.399    39.536
5.45254    -10.417    42.258
5.53185    -10.430    45.318
5.61231    -10.437    48.736
5.69394    -10.444    52.155
5.77676    -10.452    55.573
5.86079    -10.457    59.000
5.94604    -10.359    62.929
6.03252    -10.262    66.859
6.12027    -10.164    70.789
6.20929    -10.066    74.718
6.29961     -9.883    78.417
6.39124     -9.682    82.063
6.48420     -9.481    85.710
6.57851     -9.280    89.357
6.67420     -9.104    92.580
6.77128     -8.932    95.734
6.86977     -8.760    98.888
6.96969     -8.602   102.079
7.07107     -8.554   105.545
7.17392     -8.505   109.010
7.27827     -8.456   112.476
7.38413     -8.431   116.762
7.49154     -8.423   121.682
7.60050     -8.416   126.602
7.71105     -8.372   131.755
7.82321     -8.164   137.930
7.93701     -7.957   144.104
8.05245     -7.749   150.279
8.16958     -7.327   155.879
8.28841     -6.896   161.457
8.40896     -6.465   167.035
8.53128     -6.071   171.695
8.65537     -5.681   176.236
8.78126     -5.291  -179.224
8.90899     -5.049  -174.322
9.03857     -4.816  -169.398
9.17004     -4.580  -164.298
9.30342     -4.324  -157.807
9.43874     -4.067  -151.316
9.57603     -3.707  -144.619
9.71532     -3.188  -137.606
9.85663     -2.670  -130.593
10.0000     -2.091  -124.412
10.1455     -1.495  -118.462
10.2930     -0.924  -112.603
10.4427     -0.425  -106.994
10.5946      0.074  -101.385
10.7487      0.670   -95.064
10.9051      1.286   -88.601
11.0637      2.094   -82.511
11.2246      3.106   -76.815
11.3879      4.161   -71.861
11.5535      5.375   -69.611
11.7216      6.586   -67.422
11.8921      7.616   -68.773
12.0650      8.645   -70.124
12.2405      9.326   -73.758
12.4186      9.962   -77.687
12.5992     10.182   -83.008
12.7825     10.310   -88.638
12.9684      9.905   -95.102
13.1570      9.377  -101.761
13.3484      7.986  -108.534
13.5426      6.455  -115.327
13.7395      2.729  -118.096
13.9394     -0.889  -113.544
14.1421     -3.048   -54.482
14.3478     -2.788   -13.206
14.5565      2.676   -10.185
14.7683      6.263   -13.883
14.9831      8.399   -22.773
15.2010      9.386   -33.415
15.4221      9.992   -44.560
15.6464      9.784   -56.597
15.8740      8.972   -69.217
16.1049      7.678   -82.304
16.3392      4.697   -97.344
16.5768     -0.746  -120.761
16.8179     -9.672  -156.237
17.0626     -5.053   -33.204
17.3107      0.275    46.019
17.5625      4.021    27.406
17.8180      5.405    11.270
18.0771      5.941    -4.574
18.3401      5.682   -20.272
18.6068      4.385   -35.788
18.8775      2.007   -49.985
19.1521     -1.838   -58.444
19.4306     -6.929   -54.509
19.7133     -7.016     1.706
20.0000     -2.517    15.021
20.2909      1.951     9.785
20.5860      4.860    -1.834
20.8855      6.879   -13.604
21.1893      8.220   -23.541
21.4975      9.144   -31.309
21.8102      9.747   -36.770
22.1274     10.094   -39.692
22.4492     10.275   -39.770
22.7758     10.430   -36.695
23.1071     10.788   -30.514
23.4432     11.632   -22.548
23.7841     13.026   -15.781
24.1301     14.620   -11.865
24.4811     16.127   -10.300
24.8372     17.431    -9.869
25.1984     18.566    -9.437
25.5649     19.654    -8.460
25.9368     20.824    -7.226
26.3141     22.107    -6.557
26.6968     23.415    -7.076
27.0851     24.621    -8.734
27.4791     25.637   -10.929
27.8788     26.468   -12.838
28.2843     27.201   -13.934
28.6957     27.940   -14.195
29.1131     28.763   -14.081
29.5365     29.676   -14.198
29.9661     30.625   -14.929
30.4020     31.548   -16.317
30.8442     32.406   -18.204
31.2929     33.205   -20.311
31.7480     33.967   -22.522
32.2098     34.714   -24.811
32.6783     35.474   -27.237
33.1536     36.257   -29.839
33.6359     37.068   -32.623
34.1251     37.919   -35.562
34.6215     38.812   -38.598
35.1250     39.751   -41.713
35.6359     40.731   -44.952
36.1543     41.726   -48.301
36.6802     42.713   -51.680
37.2137     43.680   -54.970
37.7550     44.637   -58.152
38.3041     45.592   -61.336
38.8613     46.540   -64.705
39.4265     47.464   -68.425
40.0000     48.353   -72.518
40.5818     49.200   -77.026
41.1721     50.011   -82.012
41.7710     50.780   -87.456
42.3785     51.494   -93.303
42.9949     52.161   -99.297
43.6203     52.803  -105.274
44.2548     53.433  -111.198
44.8985     54.039  -117.104
45.5515     54.590  -122.927
46.2141     55.072  -128.546
46.8863     55.484  -133.955
47.5683     55.818  -139.292
48.2602     56.053  -144.603
48.9621     56.193  -149.779
49.6743     56.276  -154.814
50.3968     56.331  -159.885
51.1299     56.366  -165.071
51.8736     56.397  -170.254
52.6281     56.458  -175.324
53.3936     56.558   179.803
54.1702     56.691   175.306
54.9581     56.848   171.312
55.7575     57.005   167.759
56.5685     57.120   164.582
57.3914     57.180   161.701
58.2261     57.181   158.902
59.0730     57.122   156.018
59.9323     57.032   152.978
60.8040     56.955   149.657
61.6884     56.932   145.977
62.5857     56.985   142.030
63.4960     57.119   138.002
64.4196     57.307   134.276
65.3566     57.536   131.121
66.3073     57.768   128.465
67.2717     57.965   126.266
68.2502     58.122   124.348
69.2429     58.247   122.401
70.2501     58.344   120.196
71.2719     58.429   117.668
72.3086     58.525   114.860
73.3603     58.643   111.885
74.4274     58.776   108.913
75.5099     58.913   106.163
76.6083     59.064   103.677
77.7226     59.225   101.274
78.8531     59.389    98.869
80.0000     59.569    96.295
81.1636     59.732    93.547
82.3442     59.902    90.970
83.5419     60.116    88.302
84.7570     60.319    85.446
85.9899     60.514    82.627
87.2406     60.718    79.825
88.5096     60.943    76.998
89.7970     61.169    74.078
91.1031     61.362    71.083
92.4282     61.468    68.168
93.7726     61.531    65.594
95.1366     61.611    62.962
96.5204     61.727    60.202
97.9243     61.916    57.300
99.3486     62.145    54.306
100.794     62.378    51.437
102.260     62.577    48.578
103.747     62.736    45.554
105.256     62.884    42.173
106.787     63.051    38.428
108.340     63.232    34.666
109.916     63.415    31.337
111.515     63.581    28.383
113.137     63.716    25.462
114.783     63.821    22.133
116.452     63.928    18.481
118.146     64.089    14.717
119.865     64.282    11.057
121.608     64.461     7.611
123.377     64.603     4.268
125.171     64.703     0.753
126.992     64.795    -2.975
128.839     64.895    -6.907
130.713     64.964   -10.953
132.615     64.969   -14.831
134.543     64.982   -18.610
136.500     65.031   -22.725
138.486     65.063   -26.520
140.500     65.102   -30.330
142.544     65.136   -34.258
144.617     65.131   -37.827
146.721     65.155   -41.178
148.855     65.240   -45.209
151.020     65.273   -49.522
153.217     65.247   -53.411
155.445     65.246   -57.083
157.706     65.207   -60.858
160.000     65.094   -64.209
162.327     65.068   -67.386
164.688     65.065   -70.611
167.084     65.164   -74.345
169.514     65.131   -78.901
171.980     64.976   -82.214
174.481     64.897   -84.881
177.019     64.880   -87.838
179.594     64.902   -91.168
182.206     64.964   -94.639
184.856     65.038   -98.130
187.545     65.093  -101.617
190.273     65.171  -105.499
193.041     65.214  -109.394
195.849     65.237  -113.032
198.697     65.271  -117.535
201.587     65.185  -122.205
204.520     65.065  -125.683
207.494     64.931  -129.259
210.512     64.863  -133.052
213.574     64.813  -136.807
216.681     64.781  -139.378
219.833     64.739  -142.462
223.030     64.797  -146.165
226.274     64.727  -149.791
229.565     64.702  -153.553
232.905     64.738  -156.721
236.292     64.753  -159.900
239.729     64.756  -163.273
243.216     64.880  -166.546
246.754     64.910  -169.784
250.343     64.895  -173.928
253.984     64.943  -177.669
257.678     64.877   178.488
261.426     64.903   174.341
265.229     64.927   170.242
269.087     64.819   166.765
273.001     64.728   162.175
276.972     64.412   158.920
281.000     64.316   157.965
285.088     64.412   155.951
289.234     64.544   152.798
293.441     64.716   148.880
297.709     64.757   145.475
302.040     64.642   141.716
306.433     64.495   139.815
310.890     64.696   136.824
315.412     64.634   133.994
320.000     64.552   131.100
324.655     64.562   129.252
329.377     64.685   127.428
334.168     64.750   124.222
339.028     64.756   121.598
343.959     64.753   119.237
348.962     64.834   117.191
354.038     64.990   114.956
359.188     65.077   111.931
364.412     65.023   108.757
369.713     64.990   107.100
375.090     64.997   105.089
380.546     65.083   102.995
386.081     65.139    99.939
391.697     65.119    97.621
397.394     65.091    94.658
403.175     64.956    93.154
409.039     64.971    91.191
414.989     64.917    89.408
421.025     64.922    87.223
427.149     64.868    85.245
433.362     64.865    83.599
439.665     64.827    81.797
446.060     64.752    80.434
452.548     64.743    78.752
459.131     64.752    77.441
465.809     64.796    75.614
472.584     64.698    73.747
479.458     64.697    72.637
486.432     64.703    71.348
493.507     64.678    70.045
500.686     64.690    69.012
507.968     64.721    67.649
515.357     64.767    66.275
522.853     64.845    65.036
530.458     64.946    63.532
538.174     65.031    62.021
546.002     65.143    60.355
553.943     65.266    58.515
562.001     65.382    56.520
570.175     65.517    54.287
578.469     65.633    51.923
586.883     65.777    49.643
595.419     65.868    47.191
604.080     65.980    44.715
612.866     66.082    42.120
621.780     66.176    39.513
630.824     66.250    36.826
640.000     66.329    34.156
649.309     66.395    31.542
658.753     66.448    28.795
668.335     66.496    26.117
678.056     66.542    23.394
687.919     66.578    20.856
697.925     66.582    17.983
708.077     66.611    15.317
718.376     66.635    12.617
728.825     66.645     9.935
739.426     66.633     7.226
750.181     66.635     4.430
761.093     66.601     1.625
772.163     66.578    -1.247
783.394     66.538    -3.952
794.789     66.477    -6.848
806.349     66.394    -9.626
818.078     66.287   -12.367
829.977     66.168   -15.034
842.050     66.018   -17.590
854.298     65.844   -19.994
866.724     65.670   -22.213
879.330     65.488   -24.088
892.120     65.303   -25.699
905.097     65.133   -27.000
918.262     64.992   -28.063
931.618     64.922   -28.921
945.169     64.904   -29.609
958.917     64.969   -30.393
972.864     65.102   -31.244
987.015     65.287   -32.656
1001.37     65.532   -34.500
1015.94     65.797   -36.890
1030.71     66.058   -39.867
1045.71     66.309   -43.444
1060.92     66.516   -47.730
1076.35     66.687   -52.392
1092.00     66.779   -57.563
1107.89     66.798   -63.194
1124.00     66.736   -69.271
1140.35     66.586   -75.712
1156.94     66.333   -82.535
1173.77     65.952   -89.661
1190.84     65.441   -97.274
1208.16     64.782  -105.263
1225.73     63.939  -113.856
1243.56     62.831  -123.055
1261.65     61.423  -133.301
1280.00     59.562  -144.964
1298.62     57.111  -159.682
1317.51     53.715   178.816
1336.67     49.945   137.346
1356.11     50.431    78.547
1375.84     54.331    41.203
1395.85     57.658    20.917
1416.15     59.836     6.353
1436.75     61.439    -6.016
1457.65     62.544   -17.238
1478.85     63.317   -27.462
1500.36     63.769   -36.785
1522.19     63.977   -45.287
1544.33     64.004   -52.785
1566.79     63.905   -59.140
1589.58     63.740   -64.441
1612.70     63.613   -68.769
1636.16     63.548   -72.572
1659.95     63.579   -76.434
1684.10     63.653   -80.914
1708.60     63.714   -86.017
1733.45     63.703   -91.794
1758.66     63.568   -97.890
1784.24     63.305  -104.026
1810.19     62.951  -109.729
1836.52     62.543  -114.943
1863.24     62.152  -119.797
1890.34     61.869  -124.807
1917.83     61.622  -130.434
1945.73     61.401  -137.315
1974.03     61.051  -145.624
2002.74     60.540  -154.896
2031.87     59.760  -164.713
2061.43     58.756  -174.490
2091.41     57.603   176.364
2121.83     56.445   168.740
2152.69     55.519   162.222
2184.01     55.022   155.397
2215.77     54.961   146.884
2248.00     55.157   136.019
2280.70     55.472   123.320
2313.87     55.792   110.244
2347.53     56.072    97.487
2381.68     56.304    85.981
2416.32     56.562    76.220
2451.46     56.822    68.102
2487.12     57.140    61.363
2523.30     57.554    55.861
2560.00     58.051    51.224
2597.24     58.614    46.997
2635.01     59.207    42.490
2673.34     59.740    37.720
2712.23     60.157    33.082
2751.68     60.465    29.049
2791.70     60.755    26.030
2832.31     61.112    23.577
2873.50     61.551    20.889
2915.30     61.964    17.617
2957.70     62.245    14.007
3000.72     62.399    10.828
3044.37     62.459     8.569
3088.65     62.519     7.459
3133.58     62.683     7.302
3179.16     63.038     7.673
3225.40     63.600     7.337
3272.31     64.245     5.438
3319.91     64.777     2.177
3368.20     65.101    -1.327
3417.19     65.314    -4.329
3466.89     65.517    -6.852
3517.32     65.692    -9.462
3568.48     65.764   -11.601
3620.39     65.882   -12.371
3673.05     66.305   -12.917
3726.47     66.916   -15.720
3780.67     67.293   -20.978
3835.67     67.229   -26.364
3891.46     66.919   -29.617
3948.06     66.715   -30.985
4005.49     66.672   -32.273
4063.75     66.637   -33.791
4122.86     66.614   -34.971
4182.82     66.671   -36.404
4243.66     66.700   -38.512
4305.39     66.592   -40.680
4368.01     66.390   -42.322
4431.55     66.136   -42.957
4496.01     65.990   -42.348
4561.40     66.107   -41.823
4627.75     66.278   -42.790
4695.06     66.325   -44.259
4763.35     66.353   -45.598
4832.64     66.339   -47.518
4902.93     66.165   -49.358
4974.24     65.978   -50.464
5046.60     65.778   -51.788
5120.00     65.425   -52.776
5194.47     65.046   -52.758
5270.03     64.646   -52.012
5346.68     64.330   -49.651
5424.45     64.290   -47.710
5503.35     64.095   -46.574
5583.40     63.909   -43.033
5664.61     64.182   -39.575
5747.01     64.549   -38.165
5830.60     64.848   -37.861
5915.41     64.994   -37.822
6001.45     65.188   -37.110
6088.74     65.462   -37.642
6177.30     65.541   -38.616
6267.15     65.594   -39.247
6358.31     65.597   -39.742
6450.80     65.705   -40.760
6544.62     65.540   -43.868
6639.82     64.850   -45.072
6736.40     64.233   -42.532
6834.38     64.019   -40.079
6933.79     63.425   -38.981
7034.64     62.695   -31.826
7136.96     62.902   -23.513
7240.77     63.352   -17.077
7346.09     64.109   -11.296
7452.94     65.205    -7.726
7561.35     66.290    -7.755
7671.33     67.150    -9.805
7782.91     67.710   -12.899
7896.12     68.129   -15.961
8010.97     68.357   -19.943
8127.49     68.274   -23.985
8245.71     67.897   -26.767
8365.65     67.420   -28.973
8487.33     66.637   -29.249
8610.78     65.998   -26.855
8736.03     65.752   -24.294
8863.09     65.421   -23.251
8992.01     65.156   -21.892
9122.80     64.838   -21.123
9255.50     64.339   -21.458
9390.12     63.608   -19.648
9526.70     62.951   -15.520
9665.27     62.770   -10.519
9805.86     62.900    -7.458
9948.49     62.643    -6.635
10093.2     62.132    -1.911
10240.0     62.173     5.091
10388.9     62.776    11.629
10540.1     63.402    13.902
10693.4     63.782    15.568
10848.9     64.040    19.198
11006.7     64.693    22.988
11166.8     65.542    24.309
11329.2     66.245    23.019
11494.0     66.683    21.496
11661.2     66.858    20.865
11830.8     67.402    19.554
12002.9     67.478    16.411
12177.5     67.305    15.355
12354.6     67.371    15.145
12534.3     67.365    13.785
12716.6     67.161    12.854
12901.6     66.917    13.686
13089.2     67.058    15.351
13279.6     67.326    13.433
13472.8     67.011    10.680
13668.8     66.551    11.032
13867.6     66.358    11.625
14069.3     66.039    12.412
14273.9     65.967    14.837
14481.5     66.274    14.730
14692.2     66.308    12.248
14905.9     66.047     8.951
15122.7     65.539     6.446
15342.7     64.835     5.285
15565.8     64.322     5.260
15792.2     63.719     3.991
16021.9     63.046     3.855
16255.0     62.348     3.838
16491.4     61.799     4.639
16731.3     61.403     3.568
16974.7     60.711    -0.177
17221.6     59.552    -2.647
17472.1     58.319    -3.527
17726.2     57.340    -4.558
17984.0     56.026    -9.332
18245.6     53.624   -13.027
18511.0     51.043    -6.733
18780.2     49.887     0.218
19053.4     48.651     0.875
19330.5     47.480     1.923
19611.7     46.462    -4.250
19897.0     44.902   -15.395
20186.4     43.304   -30.610
20480.0     42.597   -53.929
20777.9     42.061   -79.173
21080.1     42.743   -96.809
21386.7     43.811  -109.716
21697.8     44.208  -119.927
22013.4     43.864  -120.327
22333.6     44.358  -113.841
22658.4     45.623  -105.253
22988.0     47.683  -105.296
23322.4     48.776  -108.425
23661.6     49.425  -113.523
24005.8     49.309  -117.178
24355.0     49.133  -114.982
24709.2     49.367  -118.800
25068.6     48.166  -121.181
25433.2     47.148  -114.837
25803.2     47.163  -106.744
26178.5     47.665  -107.653
26559.3     47.168  -107.591
26945.6     47.237  -110.771
27337.5     45.341  -119.791
27735.2     42.271  -111.527
28138.6     40.173   -96.443
28547.9     40.168   -72.504
28963.1     41.780   -69.405
29384.4     41.041   -72.653
29811.8     38.396   -69.039
30245.4     36.988   -47.717
30685.3     37.181   -52.449
31131.7     30.179   -32.700
31584.5     33.696    14.924
32043.9     34.781    23.404
32510.0     37.520    31.347
32982.8     37.862     1.189
33462.6     24.683    41.563
33949.3     29.651    96.979
34443.1     33.906    83.943
34944.1     33.681    76.420
35452.4     32.034    79.559
35968.0     32.112   103.827
36491.2     32.024    89.392
37022.0     29.531   112.498
37560.5     30.416   119.651
38106.8     29.407   118.229
38661.1     26.780   117.257
39223.4     23.878  -149.379
39793.9     22.498  -161.738
