Freq[Hz]     dBSPL  Phase[Deg]
5.00000     -9.210    22.836
5.07273     -9.162    25.352
5.14651     -9.126    27.954
5.22137     -9.123    30.799
5.29732     -9.120    33.644
5.37437     -9.117    36.489
5.45254     -9.114    39.334
5.53185     -9.107    42.533
5.61231     -9.097    46.105
5.69394     -9.086    49.678
5.77676     -9.076    53.251
5.86079     -9.064    56.832
5.94604     -8.952    60.939
6.03252     -8.841    65.046
6.12027     -8.729    69.153
6.20929     -8.617    73.260
6.29961     -8.426    77.146
6.39124     -8.216    80.982
6.48420     -8.007    84.819
6.57851     -7.797    88.656
6.67420     -7.617    92.070
6.77128     -7.441    95.416
6.86977     -7.265    98.762
6.96969     -7.103   102.143
7.07107     -7.055   105.794
7.17392     -7.007   109.444
7.27827     -6.958   113.095
7.38413     -6.934   117.559
7.49154     -6.930   122.652
7.60050     -6.926   127.745
7.71105     -6.884   133.068
7.82321     -6.682   139.402
7.93701     -6.480   145.736
8.05245     -6.277   152.070
8.16958     -5.860   157.815
8.28841     -5.434   163.539
8.40896     -5.009   169.263
8.53128     -4.619   174.060
8.65537     -4.234   178.737
8.78126     -3.850  -176.586
8.90899     -3.611  -171.553
9.03857     -3.382  -166.497
9.17004     -3.151  -161.266
9.30342     -2.897  -154.643
9.43874     -2.643  -148.019
9.57603     -2.284  -141.186
9.71532     -1.767  -134.031
9.85663     -1.249  -126.877
10.0000     -0.670  -120.543
10.1455     -0.073  -114.436
10.2930      0.498  -108.414
10.4427      0.998  -102.625
10.5946      1.498   -96.836
10.7487      2.096   -90.309
10.9051      2.713   -83.636
11.0637      3.522   -77.317
11.2246      4.534   -71.373
11.3879      5.590   -66.162
11.5535      6.801   -63.622
11.7216      8.009   -61.140
11.8921      9.031   -62.155
12.0650     10.053   -63.170
12.2405     10.720   -66.428
12.4186     11.341   -69.976
12.5992     11.538   -74.884
12.7825     11.641   -80.093
12.9684     11.201   -86.116
13.1570     10.634   -92.327
13.3484      9.192   -98.648
13.5426      7.608  -104.987
13.7395      3.812  -107.322
13.9394      0.121  -102.342
14.1421     -2.128   -42.898
14.3478     -1.962    -1.268
14.5565      3.396     2.048
14.7683      6.869    -1.422
14.9831      8.887   -10.137
15.2010      9.746   -20.728
15.4221     10.221   -31.872
15.6464      9.880   -44.040
15.8740      8.937   -56.884
16.1049      7.511   -70.269
16.3392      4.406   -85.760
16.5768     -1.155  -109.693
16.8179    -10.193  -145.772
17.0626     -5.670   -23.450
17.3107     -0.429    55.009
17.5625      3.242    35.573
17.8180      4.571    18.548
18.0771      5.065     1.787
18.3401      4.778   -14.853
18.6068      3.472   -31.328
18.8775      1.103   -46.483
19.1521     -2.717   -55.888
19.4306     -7.769   -52.881
19.7133     -7.799     2.448
20.0000     -3.224    14.929
20.2909      1.333     8.920
20.5860      4.345    -3.401
20.8855      6.481   -15.789
21.1893      7.952   -26.220
21.4975      9.018   -34.359
21.8102      9.768   -40.060
22.1274     10.269   -43.078
22.4492     10.605   -43.099
22.7758     10.911   -39.806
23.1071     11.413   -33.247
23.4432     12.390   -24.746
23.7841     13.898   -17.294
24.1301     15.584   -12.578
24.4811     17.159   -10.129
24.8372     18.504    -8.768
25.1984     19.650    -7.399
25.5649     20.723    -5.518
25.9368     21.851    -3.453
26.3141     23.070    -2.060
26.6968     24.298    -1.985
27.0851     25.409    -3.201
27.4791     26.326    -5.122
27.8788     27.055    -6.929
28.2843     27.689    -8.085
28.6957     28.341    -8.557
29.1131     29.092    -8.784
29.5365     29.950    -9.350
29.9661     30.868   -10.607
30.4020     31.785   -12.561
30.8442     32.667   -15.004
31.2929     33.517   -17.606
31.7480     34.354   -20.203
32.2098     35.194   -22.728
32.6783     36.058   -25.172
33.1536     36.947   -27.578
33.6359     37.856   -29.965
34.1251     38.783   -32.319
34.6215     39.725   -34.642
35.1250     40.682   -36.989
35.6359     41.646   -39.481
36.1543     42.599   -42.163
36.6802     43.522   -45.007
37.2137     44.412   -47.933
37.7550     45.291   -50.912
38.3041     46.174   -54.063
38.8613     47.063   -57.516
39.4265     47.947   -61.404
40.0000     48.816   -65.684
40.5818     49.668   -70.338
41.1721     50.497   -75.363
41.7710     51.293   -80.708
42.3785     52.027   -86.285
42.9949     52.699   -91.874
43.6203     53.319   -97.372
44.2548     53.894  -102.829
44.8985     54.415  -108.386
45.5515     54.859  -114.057
46.2141     55.227  -119.774
46.8863     55.533  -125.548
47.5683     55.787  -131.497
48.2602     55.981  -137.583
48.9621     56.127  -143.587
49.6743     56.266  -149.372
50.3968     56.419  -154.976
51.1299     56.577  -160.367
51.8736     56.732  -165.373
52.6281     56.889  -169.919
53.3936     57.034  -174.052
54.1702     57.149  -177.792
54.9581     57.236   178.771
55.7575     57.290   175.409
56.5685     57.307   172.004
57.3914     57.302   168.531
58.2261     57.299   164.929
59.0730     57.314   161.265
59.9323     57.362   157.725
60.8040     57.462   154.389
61.6884     57.610   151.306
62.5857     57.785   148.449
63.4960     57.950   145.772
64.4196     58.081   143.314
65.3566     58.180   141.036
66.3073     58.260   138.737
67.2717     58.322   136.382
68.2502     58.399   133.993
69.2429     58.507   131.510
70.2501     58.640   128.950
71.2719     58.786   126.394
72.3086     58.930   123.870
73.3603     59.057   121.340
74.4274     59.158   118.760
75.5099     59.242   116.183
76.6083     59.346   113.618
77.7226     59.491   110.990
78.8531     59.678   108.392
80.0000     59.907   105.815
81.1636     60.118   103.309
82.3442     60.315   101.161
83.5419     60.524    98.981
84.7570     60.694    96.544
85.9899     60.839    94.010
87.2406     60.989    91.345
88.5096     61.164    88.513
89.7970     61.352    85.460
91.1031     61.528    82.229
92.4282     61.650    79.060
93.7726     61.761    76.353
95.1366     61.905    73.851
96.5204     62.071    71.513
97.9243     62.268    69.185
99.3486     62.457    66.672
100.794     62.629    63.992
102.260     62.787    61.043
103.747     62.951    57.868
105.256     63.134    54.533
106.787     63.330    51.102
108.340     63.501    47.749
109.916     63.648    44.673
111.515     63.783    41.737
113.137     63.920    38.763
114.783     64.052    35.553
116.452     64.175    32.244
118.146     64.314    28.843
119.865     64.464    25.322
121.608     64.622    21.778
123.377     64.788    18.355
125.171     64.933    15.024
126.992     65.045    11.718
128.839     65.125     8.169
130.713     65.165     4.263
132.615     65.174     0.402
134.543     65.220    -3.171
136.500     65.285    -6.840
138.486     65.295   -10.235
140.500     65.299   -13.855
142.544     65.329   -17.735
144.617     65.350   -21.091
146.721     65.380   -23.995
148.855     65.430   -27.595
151.020     65.422   -31.765
153.217     65.389   -35.620
155.445     65.401   -39.107
157.706     65.361   -42.604
160.000     65.242   -45.734
162.327     65.226   -48.688
164.688     65.232   -51.554
167.084     65.311   -54.868
169.514     65.242   -59.181
171.980     65.076   -62.380
174.481     65.004   -64.856
177.019     64.988   -67.552
179.594     65.008   -70.623
182.206     65.071   -73.800
184.856     65.143   -76.953
187.545     65.189   -80.163
190.273     65.267   -83.796
193.041     65.319   -87.374
195.849     65.340   -90.581
198.697     65.344   -94.696
201.587     65.234   -99.251
204.520     65.145  -102.624
207.494     65.054  -105.681
210.512     64.962  -108.770
213.574     64.865  -112.242
216.681     64.838  -114.641
219.833     64.800  -117.291
223.030     64.841  -120.666
226.274     64.790  -123.923
229.565     64.747  -127.043
232.905     64.732  -129.956
236.292     64.760  -132.986
239.729     64.761  -135.811
243.216     64.847  -138.889
246.754     64.922  -141.995
250.343     64.933  -145.408
253.984     64.943  -148.732
257.678     64.908  -152.273
261.426     64.930  -155.609
265.229     64.898  -159.405
269.087     64.828  -162.651
273.001     64.755  -166.477
276.972     64.391  -169.124
281.000     64.257  -169.888
285.088     64.397  -171.654
289.234     64.557  -174.031
293.441     64.700  -177.300
297.709     64.720   179.717
302.040     64.619   176.384
306.433     64.472   175.230
310.890     64.625   172.793
315.412     64.549   170.194
320.000     64.507   167.739
324.655     64.519   166.575
329.377     64.651   165.235
334.168     64.724   162.771
339.028     64.719   160.773
343.959     64.707   158.997
348.962     64.794   157.500
354.038     64.946   155.839
359.188     65.058   153.406
364.412     65.003   151.047
369.713     64.949   150.040
375.090     64.961   148.466
380.546     65.077   147.120
386.081     65.131   144.827
391.697     65.092   143.203
397.394     65.069   140.784
403.175     64.956   139.904
409.039     64.980   138.737
414.989     64.937   137.640
421.025     64.944   136.233
427.149     64.897   134.996
433.362     64.884   134.090
439.665     64.842   132.849
446.060     64.794   132.279
452.548     64.799   131.277
459.131     64.798   130.960
465.809     64.853   129.664
472.584     64.769   128.890
479.458     64.744   128.470
486.432     64.758   127.954
493.507     64.741   127.523
500.686     64.765   127.233
507.968     64.823   126.870
515.357     64.878   126.560
522.853     64.956   126.140
530.458     65.066   125.568
538.174     65.186   125.022
546.002     65.315   124.243
553.943     65.466   123.406
562.001     65.619   122.315
570.175     65.776   121.026
578.469     65.940   119.583
586.883     66.103   118.099
595.419     66.251   116.486
604.080     66.392   114.890
612.866     66.528   112.991
621.780     66.658   111.164
630.824     66.764   109.223
640.000     66.850   107.270
649.309     66.921   105.294
658.753     66.957   103.320
668.335     66.968   101.191
678.056     66.967    99.164
687.919     66.927    97.161
697.925     66.864    95.145
708.077     66.778    93.433
718.376     66.653    91.774
728.825     66.507    90.349
739.426     66.326    89.248
750.181     66.119    88.350
761.093     65.907    87.869
772.163     65.701    87.893
783.394     65.509    88.317
794.789     65.359    89.326
806.349     65.267    90.743
818.078     65.271    92.498
829.977     65.377    94.471
842.050     65.587    96.305
854.298     65.907    97.922
866.724     66.306    98.989
879.330     66.770    99.484
892.120     67.259    99.345
905.097     67.756    98.530
918.262     68.227    97.154
931.618     68.664    95.248
945.169     69.042    92.908
958.917     69.367    90.259
972.864     69.618    87.372
987.015     69.797    84.375
1001.37     69.896    81.345
1015.94     69.913    78.378
1030.71     69.866    75.671
1045.71     69.748    73.271
1060.92     69.575    71.342
1076.35     69.370    69.995
1092.00     69.167    69.370
1107.89     68.991    69.430
1124.00     68.896    70.096
1140.35     68.919    71.205
1156.94     69.070    72.377
1173.77     69.362    73.255
1190.84     69.750    73.565
1208.16     70.206    73.095
1225.73     70.679    71.839
1243.56     71.144    69.789
1261.65     71.561    67.094
1280.00     71.918    63.863
1298.62     72.201    60.226
1317.51     72.408    56.303
1336.67     72.528    52.107
1356.11     72.568    47.803
1375.84     72.529    43.421
1395.85     72.416    39.153
1416.15     72.204    35.086
1436.75     71.914    31.263
1457.65     71.544    27.795
1478.85     71.100    24.856
1500.36     70.609    22.544
1522.19     70.093    21.010
1544.33     69.588    20.286
1566.79     69.146    20.320
1589.58     68.808    20.867
1612.70     68.582    21.603
1636.16     68.466    22.093
1659.95     68.410    22.164
1684.10     68.371    21.755
1708.60     68.315    20.904
1733.45     68.226    19.950
1758.66     68.091    18.937
1784.24     67.942    18.015
1810.19     67.788    17.198
1836.52     67.643    16.353
1863.24     67.492    15.472
1890.34     67.319    14.473
1917.83     67.101    13.502
1945.73     66.854    12.755
1974.03     66.593    12.433
2002.74     66.364    12.483
2031.87     66.210    12.720
2061.43     66.122    12.681
2091.41     66.062    12.137
2121.83     65.963    11.121
2152.69     65.782     9.859
2184.01     65.536     8.799
2215.77     65.255     8.247
2248.00     65.002     7.966
2280.70     64.808     7.695
2313.87     64.623     6.984
2347.53     64.379     5.862
2381.68     64.017     4.770
2416.32     63.568     4.261
2451.46     63.102     4.644
2487.12     62.710     5.751
2523.30     62.408     6.931
2560.00     62.163     7.935
2597.24     61.936     8.866
2635.01     61.739     9.827
2673.34     61.610    10.586
2712.23     61.501    10.545
2751.68     61.272     9.633
2791.70     60.827     8.718
2832.31     60.189     9.216
2873.50     59.563    11.810
2915.30     59.198    15.710
2957.70     59.085    19.404
3000.72     59.091    22.289
3044.37     59.147    24.981
3088.65     59.359    27.299
3133.58     59.678    28.271
3179.16     59.914    27.516
3225.40     59.961    26.129
3272.31     59.872    25.244
3319.91     59.819    24.842
3368.20     59.811    23.901
3417.19     59.723    21.976
3466.89     59.467    19.814
3517.32     59.083    18.204
3568.48     58.677    17.080
3620.39     58.272    16.197
3673.05     57.871    15.110
3726.47     57.512    13.221
3780.67     56.929     9.436
3835.67     55.764     5.047
3891.46     53.863     3.965
3948.06     51.983    10.737
4005.49     51.297    20.707
4063.75     51.172    24.742
4122.86     50.342    23.949
4182.82     48.464    24.938
4243.66     45.574    33.461
4305.39     42.626    60.457
4368.01     43.583   100.378
4431.55     47.569   120.688
4496.01     51.136   126.161
4561.40     54.076   123.240
4627.75     56.079   114.168
4695.06     56.856   102.967
4763.35     56.514    94.739
4832.64     55.778    93.034
4902.93     55.414    95.735
4974.24     55.484    99.872
5046.60     56.131   103.874
5120.00     57.228   103.599
5194.47     57.978    98.688
5270.03     58.222    92.216
5346.68     57.949    85.435
5424.45     57.170    79.336
5503.35     55.813    74.642
5583.40     53.578    75.811
5664.61     52.055    90.314
5747.01     52.574   100.508
5830.60     52.363   106.371
5915.41     52.909   116.525
6001.45     53.719   119.517
6088.74     54.127   124.151
6177.30     55.061   127.597
6267.15     56.016   130.418
6358.31     57.802   128.970
6450.80     58.987   118.174
6544.62     59.289   105.735
6639.82     59.132    88.949
6736.40     57.384    65.759
6834.38     52.950    40.952
6933.79     45.714    16.555
7034.64     42.749   -53.612
7136.96     49.693  -120.457
7240.77     52.873  -148.166
7346.09     54.518  -156.969
7452.94     55.703  -164.923
7561.35     56.320  -168.133
7671.33     56.890  -171.263
7782.91     57.279  -172.889
7896.12     57.381  -174.843
8010.97     57.450  -174.496
8127.49     57.374  -173.993
8245.71     57.091  -174.089
8365.65     55.876  -168.483
8487.33     55.540  -154.129
8610.78     56.978  -137.374
8736.03     59.492  -133.260
8863.09     61.281  -136.215
8992.01     62.392  -140.871
9122.80     63.071  -146.337
9255.50     63.457  -150.546
9390.12     63.693  -154.828
9526.70     63.921  -158.917
9665.27     63.990  -163.359
9805.86     63.863  -169.076
9948.49     63.039  -174.750
10093.2     61.643  -171.428
10240.0     61.728  -162.322
10388.9     62.641  -160.186
10540.1     63.065  -161.138
10693.4     63.180  -161.408
10848.9     63.371  -160.918
11006.7     63.628  -160.329
11166.8     63.956  -159.932
11329.2     64.226  -161.147
11494.0     64.290  -161.533
11661.2     64.593  -159.770
11830.8     65.367  -163.675
12002.9     64.945  -168.625
12177.5     64.383  -168.305
12354.6     64.338  -166.708
12534.3     64.297  -166.566
12716.6     64.181  -165.851
12901.6     64.149  -164.594
13089.2     64.214  -163.341
13279.6     64.382  -162.641
13472.8     64.497  -162.552
13668.8     64.506  -162.608
13867.6     64.521  -161.420
14069.3     64.790  -160.324
14273.9     65.046  -160.653
14481.5     65.236  -160.546
14692.2     65.591  -160.574
14905.9     66.064  -161.924
15122.7     66.421  -164.675
15342.7     66.672  -167.710
15565.8     66.923  -171.224
15792.2     67.052  -175.674
16021.9     67.006   179.602
16255.0     66.868   175.455
16491.4     66.774   171.096
16731.3     66.558   165.700
16974.7     66.103   160.270
17221.6     65.455   155.773
17472.1     64.795   152.574
17726.2     64.195   149.501
17984.0     63.506   146.357
18245.6     62.743   143.840
18511.0     61.978   141.825
18780.2     61.208   139.934
19053.4     60.392   138.053
19330.5     59.529   136.573
19611.7     58.535   134.747
19897.0     57.300   134.252
20186.4     56.080   134.902
20480.0     54.564   135.450
20777.9     52.577   144.013
21080.1     52.116   156.862
21386.7     52.283   165.029
21697.8     52.605   171.131
22013.4     53.054   175.168
22333.6     53.649   176.829
22658.4     54.086   175.694
22988.0     54.150   173.473
23322.4     53.999   172.295
23661.6     53.903   171.538
24005.8     53.757   170.243
24355.0     53.549   169.193
24709.2     53.432   168.832
25068.6     53.364   167.252
25433.2     53.310   164.329
25803.2     52.759   159.861
26178.5     51.953   159.169
26559.3     51.650   160.520
26945.6     51.451   159.856
27337.5     51.147   158.401
27735.2     50.859   157.779
28138.6     50.474   155.429
28547.9     49.619   155.604
28963.1     49.583   159.196
29384.4     49.900   154.485
29811.8     48.980   148.346
30245.4     47.344   145.406
30685.3     46.125   151.988
31131.7     46.106   157.513
31584.5     46.169   154.448
32043.9     46.092   151.017
32510.0     45.582   142.671
32982.8     44.003   130.550
33462.6     41.637   126.039
33949.3     38.632   126.071
34443.1     36.362   128.958
34944.1     34.137   143.062
35452.4     34.259   147.923
35968.0     34.214   151.446
36491.2     35.235   143.038
37022.0     34.299   123.621
37560.5     32.337   108.448
38106.8     29.658    92.075
38661.1     27.265    92.721
39223.4     27.099    81.892
39793.9     25.635    63.579
