Freq[Hz]     dBSPL  Phase[Deg]
5.00000     -5.199    21.503
5.07273     -5.138    24.163
5.14651     -5.091    26.917
5.22137     -5.081    29.933
5.29732     -5.070    32.949
5.37437     -5.059    35.965
5.45254     -5.048    38.981
5.53185     -5.037    42.359
5.61231     -5.024    46.121
5.69394     -5.012    49.883
5.77676     -4.999    53.644
5.86079     -4.985    57.415
5.94604     -4.878    61.718
6.03252     -4.771    66.021
6.12027     -4.664    70.324
6.20929     -4.556    74.627
6.29961     -4.374    78.706
6.39124     -4.176    82.734
6.48420     -3.977    86.763
6.57851     -3.779    90.791
6.67420     -3.614    94.384
6.77128     -3.455    97.907
6.86977     -3.296   101.429
6.96969     -3.152   104.984
7.07107     -3.125   108.787
7.17392     -3.099   112.590
7.27827     -3.073   116.393
7.38413     -3.074   120.992
7.49154     -3.096   126.206
7.60050     -3.118   131.420
7.71105     -3.104   136.858
7.82321     -2.930   143.277
7.93701     -2.757   149.697
8.05245     -2.583   156.116
8.16958     -2.197   161.911
8.28841     -1.802   167.683
8.40896     -1.407   173.455
8.53128     -1.049   178.265
8.65537     -0.695  -177.048
8.78126     -0.342  -172.361
8.90899     -0.134  -167.354
9.03857      0.065  -162.325
9.17004      0.266  -157.126
9.30342      0.491  -150.565
9.43874      0.717  -144.004
9.57603      1.047  -137.246
9.71532      1.539  -130.186
9.85663      2.030  -123.127
10.0000      2.586  -116.909
10.1455      3.160  -110.927
10.2930      3.709  -105.034
10.4427      4.191   -99.394
10.5946      4.673   -93.753
10.7487      5.257   -87.391
10.9051      5.861   -80.886
11.0637      6.659   -74.741
11.2246      7.664   -68.980
11.3879      8.712   -63.952
11.5535      9.922   -61.601
11.7216     11.129   -59.309
11.8921     12.156   -60.513
12.0650     13.184   -61.717
12.2405     13.861   -65.156
12.4186     14.494   -68.884
12.5992     14.708   -73.956
12.7825     14.830   -79.326
12.9684     14.414   -85.484
13.1570     13.873   -91.826
13.3484     12.461   -98.241
13.5426     10.908  -104.669
13.7395      7.147  -107.042
13.9394      3.492  -102.092
14.1421      1.282   -42.624
14.3478      1.486    -0.949
14.5565      6.883     2.458
14.7683     10.394    -0.883
14.9831     12.448    -9.438
15.2010     13.341   -19.812
15.4221     13.849   -30.719
15.6464     13.534   -42.601
15.8740     12.610   -55.134
16.1049     11.201   -68.185
16.3392      8.103   -83.311
16.5768      2.544  -106.871
16.8179     -6.499  -142.567
17.0626     -1.991   -19.861
17.3107      3.230    58.975
17.5625      6.874    39.908
17.8180      8.167    23.224
18.0771      8.620     6.783
18.3401      8.286    -9.561
18.6068      6.928   -25.782
18.8775      4.502   -40.721
19.1521      0.622   -49.946
19.4306     -4.492   -46.797
19.7133     -4.586     8.624
20.0000     -0.078    21.153
20.2909      4.413    15.152
20.5860      7.360     2.799
20.8855      9.432    -9.661
21.1893     10.841   -20.209
21.4975     11.845   -28.503
21.8102     12.538   -34.392
22.1274     12.984   -37.630
22.4492     13.268   -37.902
22.7758     13.528   -34.886
23.1071     13.988   -28.628
23.4432     14.926   -20.450
23.7841     16.401   -13.342
24.1301     18.059    -8.985
24.4811     19.612    -6.909
24.8372     20.940    -5.932
25.1984     22.074    -4.954
25.5649     23.141    -3.471
25.9368     24.271    -1.804
26.3141     25.497    -0.807
26.6968     26.738    -1.121
27.0851     27.872    -2.714
27.4791     28.819    -4.990
27.8788     29.586    -7.123
28.2843     30.265    -8.564
28.6957     30.969    -9.271
29.1131     31.779    -9.670
29.5365     32.699   -10.334
29.9661     33.682   -11.604
30.4020     34.664   -13.477
30.8442     35.607   -15.733
31.2929     36.510   -18.056
31.7480     37.388   -20.294
32.2098     38.257   -22.396
32.6783     39.130   -24.375
33.1536     40.009   -26.311
33.6359     40.891   -28.251
34.1251     41.773   -30.219
34.6215     42.656   -32.246
35.1250     43.545   -34.397
35.6359     44.436   -36.823
36.1543     45.316   -39.561
36.6802     46.171   -42.576
37.2137     47.006   -45.779
37.7550     47.842   -49.107
38.3041     48.703   -52.652
38.8613     49.589   -56.501
39.4265     50.488   -60.741
40.0000     51.389   -65.292
40.5818     52.282   -70.100
41.1721     53.157   -75.138
41.7710     53.995   -80.365
42.3785     54.761   -85.689
42.9949     55.447   -90.935
43.6203     56.061   -96.040
44.2548     56.608  -101.097
44.8985     57.079  -106.298
45.5515     57.457  -111.693
46.2141     57.742  -117.248
46.8863     57.960  -122.996
47.5683     58.123  -129.070
48.2602     58.232  -135.424
48.9621     58.306  -141.820
49.6743     58.389  -148.088
50.3968     58.508  -154.221
51.1299     58.654  -160.138
51.8736     58.815  -165.621
52.6281     58.994  -170.556
53.3936     59.170  -174.968
54.1702     59.320  -178.867
54.9581     59.438   177.657
55.7575     59.514   174.363
56.5685     59.538   171.107
57.3914     59.522   167.824
58.2261     59.489   164.409
59.0730     59.452   160.868
59.9323     59.434   157.340
60.8040     59.463   153.871
61.6884     59.543   150.496
62.5857     59.663   147.224
63.4960     59.794   144.058
64.4196     59.911   141.101
65.3566     60.018   138.379
66.3073     60.116   135.736
67.2717     60.201   133.159
68.2502     60.295   130.655
69.2429     60.410   128.123
70.2501     60.536   125.529
71.2719     60.663   122.907
72.3086     60.784   120.265
73.3603     60.889   117.566
74.4274     60.973   114.795
75.5099     61.044   112.041
76.6083     61.136   109.338
77.7226     61.265   106.613
78.8531     61.425   103.933
80.0000     61.613   101.239
81.1636     61.774    98.527
82.3442     61.918    96.043
83.5419     62.086    93.388
84.7570     62.236    90.382
85.9899     62.391    87.281
87.2406     62.579    84.174
88.5096     62.803    81.129
89.7970     63.029    78.114
91.1031     63.207    75.082
92.4282     63.285    72.087
93.7726     63.318    69.336
95.1366     63.380    66.461
96.5204     63.493    63.491
97.9243     63.686    60.481
99.3486     63.910    57.471
100.794     64.122    54.596
102.260     64.293    51.672
103.747     64.425    48.521
105.256     64.550    45.000
106.787     64.695    41.130
108.340     64.848    37.228
109.916     65.006    33.699
111.515     65.157    30.505
113.137     65.291    27.398
114.783     65.396    24.020
116.452     65.483    20.413
118.146     65.597    16.622
119.865     65.735    12.736
121.608     65.881     8.904
123.377     66.018     5.200
125.171     66.127     1.483
126.992     66.213    -2.332
128.839     66.289    -6.394
130.713     66.337   -10.684
132.615     66.340   -14.818
134.543     66.359   -18.728
136.500     66.402   -22.875
138.486     66.412   -26.714
140.500     66.425   -30.651
142.544     66.435   -34.732
144.617     66.406   -38.409
146.721     66.394   -41.904
148.855     66.444   -46.203
151.020     66.457   -50.822
153.217     66.420   -54.947
155.445     66.402   -58.817
157.706     66.345   -62.847
160.000     66.228   -66.478
162.327     66.205   -69.820
164.688     66.192   -73.128
167.084     66.272   -77.006
169.514     66.230   -81.720
171.980     66.062   -85.038
174.481     65.940   -87.662
177.019     65.852   -90.796
179.594     65.820   -94.638
182.206     65.890   -98.643
184.856     65.991  -102.230
187.545     66.014  -105.586
190.273     66.013  -109.676
193.041     66.015  -114.129
195.849     66.049  -118.130
198.697     66.071  -122.754
201.587     65.949  -127.686
204.520     65.817  -131.502
207.494     65.680  -135.215
210.512     65.572  -139.076
213.574     65.464  -143.122
216.681     65.404  -146.114
219.833     65.351  -149.523
223.030     65.388  -153.535
226.274     65.322  -157.466
229.565     65.292  -161.162
232.905     65.249  -164.310
236.292     65.189  -167.942
239.729     65.159  -171.770
243.216     65.248  -175.457
246.754     65.268  -179.082
250.343     65.221   176.587
253.984     65.227   172.406
257.678     65.164   168.310
261.426     65.128   164.134
265.229     65.082   159.490
269.087     64.973   155.612
273.001     64.849   150.977
276.972     64.451   147.512
281.000     64.291   146.004
285.088     64.365   143.597
289.234     64.447   140.230
293.441     64.555   136.077
297.709     64.501   132.270
302.040     64.352   127.894
306.433     64.166   125.917
310.890     64.249   122.567
315.412     64.121   119.116
320.000     63.979   115.834
324.655     63.920   113.571
329.377     63.984   111.359
334.168     63.982   107.934
339.028     63.871   105.099
343.959     63.748   102.259
348.962     63.744    99.660
354.038     63.812    97.159
359.188     63.805    93.736
364.412     63.638    90.560
369.713     63.432    88.555
375.090     63.320    86.009
380.546     63.304    83.852
386.081     63.177    80.718
391.697     62.991    78.138
397.394     62.794    75.029
403.175     62.486    73.362
409.039     62.342    71.562
414.989     62.078    69.807
421.025     61.903    67.850
427.149     61.658    66.168
433.362     61.470    64.925
439.665     61.238    63.592
446.060     61.007    63.117
452.548     60.794    62.091
459.131     60.660    61.616
465.809     60.575    60.693
472.584     60.394    59.835
479.458     60.298    59.785
486.432     60.248    59.313
493.507     60.195    58.917
500.686     60.206    58.447
507.968     60.259    57.739
515.357     60.301    56.958
522.853     60.363    55.736
530.458     60.465    54.224
538.174     60.527    52.601
546.002     60.589    50.661
553.943     60.616    48.303
562.001     60.650    45.781
570.175     60.634    42.985
578.469     60.558    40.118
586.883     60.465    37.181
595.419     60.327    34.278
604.080     60.105    31.785
612.866     59.835    29.223
621.780     59.494    26.940
630.824     59.107    24.935
640.000     58.727    23.698
649.309     58.313    23.313
658.753     57.866    23.598
668.335     57.511    24.860
678.056     57.263    26.929
687.919     57.203    29.504
697.925     57.392    32.174
708.077     57.729    34.354
718.376     58.257    35.490
728.825     58.892    35.542
739.426     59.561    34.290
750.181     60.205    31.743
761.093     60.802    28.141
772.163     61.334    23.611
783.394     61.772    18.309
794.789     62.094    12.173
806.349     62.310     5.348
818.078     62.406    -2.067
829.977     62.358   -10.154
842.050     62.170   -19.074
854.298     61.837   -28.799
866.724     61.320   -39.218
879.330     60.611   -51.193
892.120     59.688   -64.817
905.097     58.569   -81.232
918.262     57.362  -101.434
931.618     56.421  -126.663
945.169     56.218  -155.809
958.917     57.093   175.161
972.864     58.627   150.441
987.015     60.348   130.326
1001.37     61.938   113.494
1015.94     63.320    98.706
1030.71     64.462    85.705
1045.71     65.401    73.443
1060.92     66.151    61.800
1076.35     66.703    50.817
1092.00     67.078    40.327
1107.89     67.276    30.128
1124.00     67.319    20.402
1140.35     67.183    11.186
1156.94     66.879     2.538
1173.77     66.416    -5.288
1190.84     65.785   -12.006
1208.16     65.024   -17.347
1225.73     64.174   -20.822
1243.56     63.344   -22.056
1261.65     62.711   -21.156
1280.00     62.439   -18.747
1298.62     62.604   -16.476
1317.51     63.069   -15.641
1336.67     63.677   -16.970
1356.11     64.259   -20.193
1375.84     64.710   -24.969
1395.85     64.996   -30.674
1416.15     65.075   -36.824
1436.75     64.938   -43.000
1457.65     64.611   -48.923
1478.85     64.099   -54.117
1500.36     63.459   -58.203
1522.19     62.748   -60.719
1544.33     62.069   -61.653
1566.79     61.568   -61.128
1589.58     61.320   -60.001
1612.70     61.305   -59.309
1636.16     61.448   -59.814
1659.95     61.603   -61.556
1684.10     61.679   -64.347
1708.60     61.616   -67.494
1733.45     61.411   -70.501
1758.66     61.085   -72.974
1784.24     60.760   -74.354
1810.19     60.512   -74.793
1836.52     60.431   -74.833
1863.24     60.538   -75.520
1890.34     60.735   -77.374
1917.83     60.898   -80.745
1945.73     60.899   -85.124
1974.03     60.648   -90.109
2002.74     60.134   -94.707
2031.87     59.364   -98.011
2061.43     58.495   -99.132
2091.41     57.717   -97.526
2121.83     57.302   -94.320
2152.69     57.288   -91.595
2184.01     57.478   -90.720
2215.77     57.643   -91.642
2248.00     57.616   -93.189
2280.70     57.402   -94.700
2313.87     57.149   -95.160
2347.53     56.901   -94.604
2381.68     56.798   -93.564
2416.32     56.849   -92.321
2451.46     57.025   -91.559
2487.12     57.356   -91.450
2523.30     57.732   -92.703
2560.00     58.067   -95.528
2597.24     58.197   -99.351
2635.01     58.038  -103.378
2673.34     57.619  -106.135
2712.23     57.169  -106.610
2751.68     56.945  -105.398
2791.70     57.088  -104.550
2832.31     57.364  -105.413
2873.50     57.486  -107.512
2915.30     57.448  -109.357
2957.70     57.445  -110.049
3000.72     57.703  -110.701
3044.37     58.141  -113.386
3088.65     58.444  -118.616
3133.58     58.332  -125.256
3179.16     57.683  -131.303
3225.40     56.684  -134.319
3272.31     55.746  -132.715
3319.91     55.400  -128.374
3368.20     55.722  -125.455
3417.19     56.314  -126.016
3466.89     56.817  -129.885
3517.32     56.947  -136.386
3568.48     56.453  -144.276
3620.39     55.016  -149.899
3673.05     52.942  -145.648
3726.47     52.654  -129.201
3780.67     54.758  -121.869
3835.67     56.534  -128.632
3891.46     56.999  -140.010
3948.06     56.366  -149.155
4005.49     55.432  -152.356
4063.75     55.035  -152.314
4122.86     55.104  -154.995
4182.82     54.777  -160.438
4243.66     53.856  -164.634
4305.39     52.838  -165.030
4368.01     52.135  -164.036
4431.55     51.257  -162.068
4496.01     50.913  -153.815
4561.40     52.197  -149.389
4627.75     53.189  -158.175
4695.06     52.256  -169.200
4763.35     50.414  -166.787
4832.64     50.871  -160.526
4902.93     51.227  -169.919
4974.24     48.968  -179.268
5046.60     45.915  -169.650
5120.00     44.671  -149.634
5194.47     46.064  -124.114
5270.03     50.027  -120.382
5346.68     51.344  -134.799
5424.45     50.232  -138.585
5503.35     50.856  -129.547
5583.40     52.447  -133.847
5664.61     52.396  -140.151
5747.01     52.380  -137.917
5830.60     53.466  -137.745
5915.41     54.274  -143.542
6001.45     54.473  -148.112
6088.74     55.093  -150.615
6177.30     55.906  -159.236
6267.15     55.530  -170.518
6358.31     54.536  -173.366
6450.80     54.963  -173.133
6544.62     55.766   176.603
6639.82     54.911   161.277
6736.40     53.002   155.400
6834.38     52.348   152.133
6933.79     50.528   135.407
7034.64     43.691   139.693
7136.96     44.571  -173.040
7240.77     47.060  -176.057
7346.09     46.981  -177.854
7452.94     45.440  -171.245
7561.35     48.084  -150.617
7671.33     50.379  -165.880
7782.91     49.809  -171.350
7896.12     50.234  -174.273
8010.97     50.250  -179.518
8127.49     49.451   172.485
8245.71     48.183   178.326
8365.65     49.076   178.887
8487.33     48.471   168.765
8610.78     45.874   171.591
8736.03     45.442  -173.025
8863.09     47.075  -162.899
8992.01     48.666  -171.436
9122.80     48.092   179.349
9255.50     46.888   176.399
9390.12     45.510  -176.506
9526.70     47.477  -168.975
9665.27     47.993   178.376
9805.86     47.395   168.449
9948.49     45.273   161.600
10093.2     42.796   170.262
10240.0     43.288  -170.774
10388.9     45.514  -168.768
10540.1     46.138  -177.776
10693.4     47.068   179.224
10848.9     47.215   155.965
11006.7     44.129   150.444
11166.8     42.300   143.905
11329.2     40.564   159.717
11494.0     41.749   154.932
11661.2     39.930   143.563
11830.8     37.155   165.527
12002.9     40.357   159.138
12177.5     40.888   162.295
12354.6     42.250   135.819
12534.3     40.507   125.349
12716.6     40.653   112.308
12901.6     39.600   101.389
13089.2     39.823    77.606
13279.6     36.569    55.110
13472.8     32.497    43.783
13668.8     26.713    66.832
13867.6     32.498    76.444
14069.3     34.259    38.235
14273.9     33.600    -7.425
14481.5     30.700   -42.500
14692.2     36.152   -63.478
14905.9     34.806   -97.901
15122.7     30.593  -116.602
15342.7     34.439   -84.902
15565.8     35.793  -102.491
15792.2     35.438  -108.204
16021.9     35.266  -104.658
16255.0     36.480  -101.873
16491.4     36.037  -109.108
16731.3     35.914  -106.543
16974.7     36.030  -107.520
17221.6     36.873  -119.906
17472.1     35.467  -133.518
17726.2     33.269  -141.599
17984.0     30.859  -139.414
18245.6     30.666  -127.467
18511.0     32.108  -118.264
18780.2     34.572  -127.998
19053.4     35.078  -139.613
19330.5     33.836  -150.998
19611.7     32.245  -143.104
19897.0     31.619  -137.706
20186.4     32.302  -131.969
20480.0     31.653  -143.221
20777.9     27.914  -147.598
21080.1     28.158  -148.494
21386.7     25.326  -168.912
21697.8     21.499  -165.858
22013.4     16.241  -131.056
22333.6     22.347  -162.397
22658.4     24.333  -177.601
22988.0     28.358   160.172
23322.4     28.645   135.938
23661.6     28.336   118.338
24005.8     25.752   -96.529
24355.0     23.728    29.755
24709.2     24.385   -25.257
25068.6     24.398   -41.105
25433.2     24.661   -94.769
25803.2     20.801  -161.807
26178.5     19.159   144.117
26559.3     16.543    49.677
26945.6     20.238  -157.247
27337.5     18.937   147.414
27735.2     19.481   -82.865
28138.6     20.755  -166.304
28547.9     29.892   -90.047
28963.1     28.534  -126.059
29384.4     22.694  -130.376
29811.8     24.191  -101.222
30245.4     23.223  -117.014
30685.3     22.527  -135.744
31131.7     21.513   173.312
31584.5     22.229    98.708
32043.9     23.741    83.315
32510.0     27.184    80.925
32982.8     26.343    57.558
33462.6     21.577  -135.684
33949.3     17.827    80.481
34443.1     17.902    -9.855
34944.1     14.911   112.926
35452.4     13.654  -109.330
35968.0     15.438   -21.263
36491.2     16.830    93.040
37022.0     18.630    21.075
37560.5     17.944    84.465
38106.8     15.557    56.568
38661.1     13.781   177.139
39223.4     13.591  -168.891
39793.9     13.996  -166.151
