"SPL Vertical"
"On-Axis"		"10°"		"-10°"		"20°"		"-20°"		"30°"		"-30°"		"40°"		"-40°"		"50°"		"-50°"		"60°"		"-60°"		"70°"		"-70°"		"80°"		"-80°"		"90°"		"-90°"		"100°"		"-100°"		"110°"		"-110°"		"120°"		"-120°"		"130°"		"-130°"		"140°"		"-140°"		"150°"		"-150°"		"160°"		"-160°"		"170°"		"-170°"		"180°"
"Frequency / Hz"	"Sound Pressure Level / dB (re 20 µPa/V)  [2.83  V @ 1. m]"	"Frequency / Hz"	"Sound Pressure Level / dB (re 20 µPa/V)  [2.83  V @ 1. m]"	"Frequency / Hz"	"Sound Pressure Level / dB (re 20 µPa/V)  [2.83  V @ 1. m]"	"Frequency / Hz"	"Sound Pressure Level / dB (re 20 µPa/V)  [2.83  V @ 1. m]"	"Frequency / Hz"	"Sound Pressure Level / dB (re 20 µPa/V)  [2.83  V @ 1. m]"	"Frequency / Hz"	"Sound Pressure Level / dB (re 20 µPa/V)  [2.83  V @ 1. m]"	"Frequency / Hz"	"Sound Pressure Level / dB (re 20 µPa/V)  [2.83  V @ 1. m]"	"Frequency / Hz"	"Sound Pressure Level / dB (re 20 µPa/V)  [2.83  V @ 1. m]"	"Frequency / Hz"	"Sound Pressure Level / dB (re 20 µPa/V)  [2.83  V @ 1. m]"	"Frequency / Hz"	"Sound Pressure Level / dB (re 20 µPa/V)  [2.83  V @ 1. m]"	"Frequency / Hz"	"Sound Pressure Level / dB (re 20 µPa/V)  [2.83  V @ 1. m]"	"Frequency / Hz"	"Sound Pressure Level / dB (re 20 µPa/V)  [2.83  V @ 1. m]"	"Frequency / Hz"	"Sound Pressure Level / dB (re 20 µPa/V)  [2.83  V @ 1. m]"	"Frequency / Hz"	"Sound Pressure Level / dB (re 20 µPa/V)  [2.83  V @ 1. m]"	"Frequency / Hz"	"Sound Pressure Level / dB (re 20 µPa/V)  [2.83  V @ 1. m]"	"Frequency / Hz"	"Sound Pressure Level / dB (re 20 µPa/V)  [2.83  V @ 1. m]"	"Frequency / Hz"	"Sound Pressure Level / dB (re 20 µPa/V)  [2.83  V @ 1. m]"	"Frequency / Hz"	"Sound Pressure Level / dB (re 20 µPa/V)  [2.83  V @ 1. m]"	"Frequency / Hz"	"Sound Pressure Level / dB (re 20 µPa/V)  [2.83  V @ 1. m]"	"Frequency / Hz"	"Sound Pressure Level / dB (re 20 µPa/V)  [2.83  V @ 1. m]"	"Frequency / Hz"	"Sound Pressure Level / dB (re 20 µPa/V)  [2.83  V @ 1. m]"	"Frequency / Hz"	"Sound Pressure Level / dB (re 20 µPa/V)  [2.83  V @ 1. m]"	"Frequency / Hz"	"Sound Pressure Level / dB (re 20 µPa/V)  [2.83  V @ 1. m]"	"Frequency / Hz"	"Sound Pressure Level / dB (re 20 µPa/V)  [2.83  V @ 1. m]"	"Frequency / Hz"	"Sound Pressure Level / dB (re 20 µPa/V)  [2.83  V @ 1. m]"	"Frequency / Hz"	"Sound Pressure Level / dB (re 20 µPa/V)  [2.83  V @ 1. m]"	"Frequency / Hz"	"Sound Pressure Level / dB (re 20 µPa/V)  [2.83  V @ 1. m]"	"Frequency / Hz"	"Sound Pressure Level / dB (re 20 µPa/V)  [2.83  V @ 1. m]"	"Frequency / Hz"	"Sound Pressure Level / dB (re 20 µPa/V)  [2.83  V @ 1. m]"	"Frequency / Hz"	"Sound Pressure Level / dB (re 20 µPa/V)  [2.83  V @ 1. m]"	"Frequency / Hz"	"Sound Pressure Level / dB (re 20 µPa/V)  [2.83  V @ 1. m]"	"Frequency / Hz"	"Sound Pressure Level / dB (re 20 µPa/V)  [2.83  V @ 1. m]"	"Frequency / Hz"	"Sound Pressure Level / dB (re 20 µPa/V)  [2.83  V @ 1. m]"	"Frequency / Hz"	"Sound Pressure Level / dB (re 20 µPa/V)  [2.83  V @ 1. m]"	"Frequency / Hz"	"Sound Pressure Level / dB (re 20 µPa/V)  [2.83  V @ 1. m]"	"Frequency / Hz"	"Sound Pressure Level / dB (re 20 µPa/V)  [2.83  V @ 1. m]"
20.5078	65.255	20.5078	65.078	20.5078	65.4253	20.5078	64.8984	20.5078	65.5839	20.5078	64.7192	20.5078	65.7245	20.5078	64.5419	20.5078	65.8403	20.5078	64.3668	20.5078	65.9236	20.5078	64.1928	20.5078	65.9671	20.5078	64.0194	20.5078	65.9644	20.5078	63.8478	20.5078	65.9114	20.5078	63.6835	20.5078	65.8076	20.5078	63.5363	20.5078	65.6562	20.5078	63.4186	20.5078	65.464	20.5078	63.3415	20.5078	65.2406	20.5078	63.3118	20.5078	64.9968	20.5078	63.3306	20.5078	64.7436	20.5078	63.3952	20.5078	64.4909	20.5078	63.501	20.5078	64.2478	20.5078	63.6435	20.5078	64.0216	20.5078	63.8185
21.9727	66.0066	21.9727	65.8394	21.9727	66.17	21.9727	65.6722	21.9727	66.3246	21.9727	65.507	21.9727	66.4639	21.9727	65.3438	21.9727	66.5805	21.9727	65.1806	21.9727	66.666	21.9727	65.0141	21.9727	66.7125	21.9727	64.8414	21.9727	66.713	21.9727	64.6633	21.9727	66.663	21.9727	64.4862	21.9727	66.5617	21.9727	64.323	21.9727	66.4125	21.9727	64.19	21.9727	66.2227	21.9727	64.1017	21.9727	66.0021	21.9727	64.0666	21.9727	65.7618	21.9727	64.0854	21.9727	65.5125	21.9727	64.154	21.9727	65.2637	21.9727	64.2658	21.9727	65.0233	21.9727	64.4141	21.9727	64.798	21.9727	64.5932
23.4375	66.8019	23.4375	66.6375	23.4375	66.9581	23.4375	66.468	23.4375	67.1014	23.4375	66.2949	23.4375	67.2261	23.4375	66.1178	23.4375	67.3251	23.4375	65.9349	23.4375	67.3909	23.4375	65.7434	23.4375	67.4158	23.4375	65.5417	23.4375	67.3933	23.4375	65.332	23.4375	67.3192	23.4375	65.1224	23.4375	67.193	23.4375	64.9277	23.4375	67.0185	23.4375	64.7654	23.4375	66.8035	23.4375	64.6514	23.4375	66.5589	23.4375	64.5943	23.4375	66.2967	23.4375	64.5955	23.4375	66.0287	23.4375	64.6507	23.4375	65.7651	23.4375	64.7532	23.4375	65.5139	23.4375	64.8964	23.4375	65.2819	23.4375	65.0744
24.9023	67.6056	24.9023	67.4372	24.9023	67.7624	24.9023	67.2605	24.9023	67.903	24.9023	67.0772	24.9023	68.0218	24.9023	66.8877	24.9023	68.112	24.9023	66.6904	24.9023	68.1665	24.9023	66.4834	24.9023	68.1782	24.9023	66.2655	24.9023	68.1414	24.9023	66.0396	24.9023	68.0524	24.9023	65.8144	24.9023	67.9114	24.9023	65.6049	24.9023	67.7226	24.9023	65.4292	24.9023	67.4942	24.9023	65.3032	24.9023	67.2371	24.9023	65.2364	24.9023	66.9636	24.9023	65.2303	24.9023	66.6856	24.9023	65.2807	24.9023	66.4132	24.9023	65.3812	24.9023	66.1547	24.9023	65.5247	24.9023	65.9168	24.9023	65.7051
26.3672	68.6983	26.3672	68.5509	26.3672	68.8335	26.3672	68.3944	26.3672	68.9522	26.3672	68.2308	26.3672	69.0493	26.3672	68.0603	26.3672	69.1189	26.3672	67.8821	26.3672	69.1549	26.3672	67.6947	26.3672	69.1511	26.3672	67.4971	26.3672	69.1032	26.3672	67.292	26.3672	69.0086	26.3672	67.0865	26.3672	68.8683	26.3672	66.8936	26.3672	68.6868	26.3672	66.7286	26.3672	68.4722	26.3672	66.6054	26.3672	68.2349	26.3672	66.5328	26.3672	67.9861	26.3672	66.513	26.3672	67.7367	26.3672	66.5435	26.3672	67.4955	26.3672	66.6194	26.3672	67.2696	26.3672	66.7349	26.3672	67.0645	26.3672	66.8848
27.832	69.4043	27.832	69.2532	27.832	69.542	27.832	69.0921	27.832	69.6622	27.832	68.9229	27.832	69.7599	27.832	68.7464	27.832	69.8294	27.832	68.5623	27.832	69.8649	27.832	68.3701	27.832	69.8609	27.832	68.17	27.832	69.8132	27.832	67.9661	27.832	69.7199	27.832	67.7669	27.832	69.582	27.832	67.5856	27.832	69.4045	27.832	67.437	27.832	69.1951	27.832	67.3326	27.832	68.9643	27.832	67.2785	27.832	68.7232	27.832	67.2744	27.832	68.4821	27.832	67.3159	27.832	68.2497	27.832	67.3976	27.832	68.0324	27.832	67.5141	27.832	67.835	27.832	67.6611
29.2969	70.0336	29.2969	69.8796	29.2969	70.1735	29.2969	69.7146	29.2969	70.2956	29.2969	69.5403	29.2969	70.3951	29.2969	69.3578	29.2969	70.4669	29.2969	69.167	29.2969	70.5053	29.2969	68.9681	29.2969	70.5051	29.2969	68.7626	29.2969	70.4621	29.2969	68.5551	29.2969	70.3742	29.2969	68.3548	29.2969	70.2423	29.2969	68.1747	29.2969	70.0709	29.2969	68.0289	29.2969	69.8673	29.2969	67.9286	29.2969	69.6412	29.2969	67.8792	29.2969	69.4028	29.2969	67.8811	29.2969	69.1617	29.2969	67.9306	29.2969	68.926	29.2969	68.0222	29.2969	68.7021	29.2969	68.1504	29.2969	68.4952	29.2969	68.3097
30.7617	70.6691	30.7617	70.5248	30.7617	70.796	30.7617	70.3655	30.7617	70.9023	30.7617	70.193	30.7617	70.9841	30.7617	70.0081	30.7617	71.037	30.7617	69.8114	30.7617	71.0566	30.7617	69.6041	30.7617	71.0389	30.7617	69.3893	30.7617	70.9811	30.7617	69.174	30.7617	70.8823	30.7617	68.9697	30.7617	70.7446	30.7617	68.7911	30.7617	70.5726	30.7617	68.6524	30.7617	70.374	30.7617	68.5631	30.7617	70.1578	30.7617	68.5253	30.7617	69.9333	30.7617	68.5356	30.7617	69.7094	30.7617	68.5875	30.7617	69.4929	30.7617	68.6747	30.7617	69.2893	30.7617	68.7922	30.7617	69.1025	30.7617	68.9359
32.2266	71.6114	32.2266	71.4735	32.2266	71.731	32.2266	71.3195	32.2266	71.8292	32.2266	71.1511	32.2266	71.9024	32.2266	70.9693	32.2266	71.9468	32.2266	70.7746	32.2266	71.9583	32.2266	70.568	32.2266	71.9332	32.2266	70.3521	32.2266	71.8692	32.2266	70.1331	32.2266	71.7658	32.2266	69.922	32.2266	71.6253	32.2266	69.7332	32.2266	71.4526	32.2266	69.5818	32.2266	71.2549	32.2266	69.479	32.2266	71.0409	32.2266	69.4293	32.2266	70.8194	32.2266	69.4308	32.2266	70.5982	32.2266	69.4777	32.2266	70.3838	32.2266	69.5632	32.2266	70.1811	32.2266	69.6811	32.2266	69.994	32.2266	69.8262
33.6914	72.1945	33.6914	72.06	33.6914	72.3088	33.6914	71.9077	33.6914	72.4002	33.6914	71.7394	33.6914	72.4655	33.6914	71.5563	33.6914	72.501	33.6914	71.3596	33.6914	72.5033	33.6914	71.1513	33.6914	72.4694	33.6914	70.9349	33.6914	72.3977	33.6914	70.7176	33.6914	72.2885	33.6914	70.5108	33.6914	72.1446	33.6914	70.3285	33.6914	71.9712	33.6914	70.1846	33.6914	71.7757	33.6914	70.0884	33.6914	71.5665	33.6914	70.0427	33.6914	71.352	33.6914	70.0445	33.6914	71.1396	33.6914	70.0882	33.6914	70.9353	33.6914	70.1673	33.6914	70.7435	33.6914	70.2764	33.6914	70.5678	33.6914	70.4111
35.1562	72.9272	35.1562	72.8085	35.1562	73.0215	35.1562	72.6674	35.1562	73.0889	35.1562	72.5055	35.1562	73.1266	35.1562	72.3241	35.1562	73.1316	35.1562	72.1246	35.1562	73.1012	35.1562	71.9096	35.1562	73.0337	35.1562	71.6838	35.1562	72.9293	35.1562	71.4556	35.1562	72.7908	35.1562	71.2375	35.1562	72.6239	35.1562	71.0444	35.1562	72.4367	35.1562	70.8902	35.1562	72.238	35.1562	70.7835	35.1562	72.036	35.1562	70.7263	35.1562	71.8371	35.1562	70.7152	35.1562	71.646	35.1562	70.7441	35.1562	71.4657	35.1562	70.8067	35.1562	71.2984	35.1562	70.8974	35.1562	71.1463	35.1562	71.0117
36.6211	73.6472	36.6211	73.5106	36.6211	73.7575	36.6211	73.35	36.6211	73.839	36.6211	73.1677	36.6211	73.8888	36.6211	72.9659	36.6211	73.9039	36.6211	72.7473	36.6211	73.8818	36.6211	72.5163	36.6211	73.8206	36.6211	72.2794	36.6211	73.7207	36.6211	72.0468	36.6211	73.5848	36.6211	71.8321	36.6211	73.4188	36.6211	71.6501	36.6211	73.231	36.6211	71.5133	36.6211	73.0307	36.6211	71.4283	36.6211	72.8266	36.6211	71.3946	36.6211	72.6252	36.6211	71.4065	36.6211	72.431	36.6211	71.4567	36.6211	72.2467	36.6211	71.5377	36.6211	72.0741	36.6211	71.6438	36.6211	71.9148	36.6211	71.7705
38.0859	74.3886	38.0859	74.2555	38.0859	74.4944	38.0859	74.0972	38.0859	74.5707	38.0859	73.9156	38.0859	74.6151	38.0859	73.7131	38.0859	74.6254	38.0859	73.4925	38.0859	74.5994	38.0859	73.2583	38.0859	74.5358	38.0859	73.0174	38.0859	74.435	38.0859	72.7804	38.0859	74.2995	38.0859	72.5612	38.0859	74.1348	38.0859	72.3754	38.0859	73.9485	38.0859	72.2358	38.0859	73.7495	38.0859	72.1489	38.0859	73.5462	38.0859	72.1142	38.0859	73.3452	38.0859	72.1258	38.0859	73.1511	38.0859	72.1758	38.0859	72.9666	38.0859	72.2568	38.0859	72.7938	38.0859	72.3629	38.0859	72.6342	38.0859	72.4898
39.5508	74.8203	39.5508	74.6997	39.5508	74.9132	39.5508	74.5531	39.5508	74.9766	39.5508	74.3823	39.5508	75.0087	39.5508	74.1894	39.5508	75.0078	39.5508	73.9775	39.5508	74.9727	39.5508	73.7507	39.5508	74.9029	39.5508	73.5159	39.5508	74.7998	39.5508	73.2833	39.5508	74.6664	39.5508	73.0664	39.5508	74.5082	39.5508	72.8801	39.5508	74.3322	39.5508	72.7371	39.5508	74.1458	39.5508	72.6444	39.5508	73.9558	39.5508	72.6026	39.5508	73.7673	39.5508	72.6069	39.5508	73.584	39.5508	72.6502	39.5508	73.4084	39.5508	72.7255	39.5508	73.2426	39.5508	72.8268	39.5508	73.0887	39.5508	72.9491
41.0156	75.5124	41.0156	75.3956	41.0156	75.601	41.0156	75.2523	41.0156	75.66	41.0156	75.0843	41.0156	75.688	41.0156	74.894	41.0156	75.6841	41.0156	74.6847	41.0156	75.6476	41.0156	74.4615	41.0156	75.5789	41.0156	74.2322	41.0156	75.4794	41.0156	74.0085	41.0156	75.3523	41.0156	73.8048	41.0156	75.2027	41.0156	73.6362	41.0156	75.0368	41.0156	73.5139	41.0156	74.8615	41.0156	73.4422	41.0156	74.6832	41.0156	73.4181	41.0156	74.5073	41.0156	73.4346	41.0156	74.3377	41.0156	73.4833	41.0156	74.1769	41.0156	73.5573	41.0156	74.0266	41.0156	73.6516	41.0156	73.8881	41.0156	73.7626
42.4805	76.0291	42.4805	75.9302	42.4805	76.0967	42.4805	75.8014	42.4805	76.1318	42.4805	75.6443	42.4805	76.1335	42.4805	75.4609	42.4805	76.1012	42.4805	75.2543	42.4805	76.035	42.4805	75.0289	42.4805	75.9363	42.4805	74.7922	42.4805	75.8083	42.4805	74.5549	42.4805	75.656	42.4805	74.3313	42.4805	75.4863	42.4805	74.1367	42.4805	75.3069	42.4805	73.9841	42.4805	75.1249	42.4805	73.8802	42.4805	74.9459	42.4805	73.8251	42.4805	74.7734	42.4805	73.8136	42.4805	74.6096	42.4805	73.8384	42.4805	74.4558	42.4805	73.8926	42.4805	74.3134	42.4805	73.9708	42.4805	74.1838	42.4805	74.0688
43.9453	76.5624	43.9453	76.4576	43.9453	76.6351	43.9453	76.3224	43.9453	76.6744	43.9453	76.159	43.9453	76.6793	43.9453	75.9703	43.9453	76.6491	43.9453	75.7601	43.9453	76.5843	43.9453	75.5343	43.9453	76.4864	43.9453	75.3017	43.9453	76.3588	43.9453	75.074	43.9453	76.2073	43.9453	74.8656	43.9453	76.0394	43.9453	74.6909	43.9453	75.8634	43.9453	74.5605	43.9453	75.6871	43.9453	74.4781	43.9453	75.5164	43.9453	74.4413	43.9453	75.3544	43.9453	74.4431	43.9453	75.2025	43.9453	74.4761	43.9453	75.0612	43.9453	74.5336	43.9453	74.9305	43.9453	74.6108	43.9453	74.8112	43.9453	74.704
45.4102	77.0199	45.4102	76.911	45.4102	77.0961	45.4102	76.7705	45.4102	77.1386	45.4102	76.6003	45.4102	77.1469	45.4102	76.4032	45.4102	77.1211	45.4102	76.1832	45.4102	77.0616	45.4102	75.9468	45.4102	76.9702	45.4102	75.7039	45.4102	76.8499	45.4102	75.4678	45.4102	76.7057	45.4102	75.2548	45.4102	76.5442	45.4102	75.081	45.4102	76.3732	45.4102	74.9576	45.4102	76.2001	45.4102	74.8878	45.4102	76.0309	45.4102	74.8673	45.4102	75.8692	45.4102	74.887	45.4102	75.7167	45.4102	74.9373	45.4102	75.5738	45.4102	75.0102	45.4102	75.4405	45.4102	75.0999	45.4102	75.3167	45.4102	75.2028
46.875	77.4923	46.875	77.3949	46.875	77.553	46.875	77.2613	46.875	77.5775	46.875	77.0924	46.875	77.5665	46.875	76.8905	46.875	77.5215	46.875	76.6593	46.875	77.4448	46.875	76.4056	46.875	77.3396	46.875	76.1401	46.875	77.2103	46.875	75.8782	46.875	77.0628	46.875	75.639	46.875	76.9034	46.875	75.4419	46.875	76.7389	46.875	75.3013	46.875	76.5748	46.875	75.2223	46.875	76.4149	46.875	75.2004	46.875	76.261	46.875	75.2252	46.875	76.1135	46.875	75.2848	46.875	75.9721	46.875	75.3691	46.875	75.8366	46.875	75.4707	46.875	75.707	46.875	75.5844
48.3398	78.0004	48.3398	77.9138	48.3398	78.0505	48.3398	77.7896	48.3398	78.0657	48.3398	77.6275	48.3398	78.0487	48.3398	77.4281	48.3398	78.0027	48.3398	77.1941	48.3398	77.932	48.3398	76.9309	48.3398	77.8418	48.3398	76.6492	48.3398	77.7376	48.3398	76.3656	48.3398	77.625	48.3398	76.1026	48.3398	77.5087	48.3398	75.8854	48.3398	77.3915	48.3398	75.7347	48.3398	77.2741	48.3398	75.661	48.3398	77.1548	48.3398	75.6619	48.3398	77.0309	48.3398	75.7252	48.3398	76.8995	48.3398	75.8342	48.3398	76.759	48.3398	75.9728	48.3398	76.6093	48.3398	76.1279	48.3398	76.4519	48.3398	76.2899
51.2695	78.9346	51.2695	78.8587	51.2695	78.9716	51.2695	78.7439	51.2695	78.9706	51.2695	78.5918	51.2695	78.934	51.2695	78.4053	51.2695	78.8653	51.2695	78.1894	51.2695	78.7691	51.2695	77.952	51.2695	78.6519	51.2695	77.7037	51.2695	78.521	51.2695	77.4585	51.2695	78.3845	51.2695	77.2329	51.2695	78.2499	51.2695	77.0435	51.2695	78.1226	51.2695	76.904	51.2695	78.0049	51.2695	76.822	51.2695	77.8957	51.2695	76.7975	51.2695	77.7911	51.2695	76.8239	51.2695	77.6867	51.2695	76.8909	51.2695	77.5786	51.2695	76.9867	51.2695	77.4647	51.2695	77.1001	51.2695	77.345	51.2695	77.2219
52.7344	79.4939	52.7344	79.43	52.7344	79.5157	52.7344	79.3251	52.7344	79.496	52.7344	79.1815	52.7344	79.4369	52.7344	79.0034	52.7344	79.3421	52.7344	78.7971	52.7344	79.217	52.7344	78.5713	52.7344	79.0692	52.7344	78.3371	52.7344	78.908	52.7344	78.1081	52.7344	78.7439	52.7344	77.8987	52.7344	78.5869	52.7344	77.7224	52.7344	78.4445	52.7344	77.5889	52.7344	78.3201	52.7344	77.5023	52.7344	78.213	52.7344	77.4615	52.7344	78.1189	52.7344	77.4607	52.7344	78.0327	52.7344	77.4924	52.7344	77.9496	52.7344	77.5479	52.7344	77.8667	52.7344	77.6191	52.7344	77.7828	52.7344	77.6992
54.1992	79.8909	54.1992	79.829	54.1992	79.909	54.1992	79.7249	54.1992	79.8834	54.1992	79.5822	54.1992	79.8156	54.1992	79.4061	54.1992	79.7094	54.1992	79.2042	54.1992	79.5705	54.1992	78.9862	54.1992	79.4073	54.1992	78.7639	54.1992	79.2302	54.1992	78.5502	54.1992	79.0514	54.1992	78.3578	54.1992	78.8826	54.1992	78.197	54.1992	78.7328	54.1992	78.074	54.1992	78.606	54.1992	77.9902	54.1992	78.5015	54.1992	77.9435	54.1992	78.4145	54.1992	77.9291	54.1992	78.3392	54.1992	77.9413	54.1992	78.2702	54.1992	77.9741	54.1992	78.2043	54.1992	78.0214	54.1992	78.14	54.1992	78.0781
55.6641	80.2425	55.6641	80.1466	55.6641	80.2887	55.6641	80.0032	55.6641	80.2849	55.6641	79.8169	55.6641	80.2329	55.6641	79.5948	55.6641	80.1365	55.6641	79.3475	55.6641	80.0016	55.6641	79.0886	55.6641	79.837	55.6641	78.8348	55.6641	79.654	55.6641	78.604	55.6641	79.4657	55.6641	78.4114	55.6641	79.2852	55.6641	78.267	55.6641	79.123	55.6641	78.1729	55.6641	78.9842	55.6641	78.1246	55.6641	78.8683	55.6641	78.114	55.6641	78.7704	55.6641	78.1327	55.6641	78.6841	55.6641	78.1732	55.6641	78.6037	55.6641	78.2296	55.6641	78.5252	55.6641	78.2967	55.6641	78.4473	55.6641	78.3704
58.5938	81.4634	58.5938	81.3607	58.5938	81.5096	58.5938	81.2027	58.5938	81.5004	58.5938	80.9929	58.5938	81.4389	58.5938	80.7378	58.5938	81.3302	58.5938	80.4478	58.5938	81.182	58.5938	80.1378	58.5938	81.0043	58.5938	79.8272	58.5938	80.8095	58.5938	79.5392	58.5938	80.6115	58.5938	79.2966	58.5938	80.4239	58.5938	79.1173	58.5938	80.2574	58.5938	79.0093	58.5938	80.1167	58.5938	78.9696	58.5938	80.0008	58.5938	78.9865	58.5938	79.9032	58.5938	79.0452	58.5938	79.8157	58.5938	79.1311	58.5938	79.7306	58.5938	79.2321	58.5938	79.642	58.5938	79.3391	58.5938	79.5472	58.5938	79.4455
60.0586	82.0033	60.0586	81.9049	60.0586	82.0437	60.0586	81.7498	60.0586	82.0271	60.0586	81.5419	60.0586	81.9566	60.0586	81.288	60.0586	81.8376	60.0586	80.9988	60.0586	81.678	60.0586	80.6889	60.0586	81.4884	60.0586	80.3776	60.0586	81.282	60.0586	80.0871	60.0586	81.0735	60.0586	79.8396	60.0586	80.8776	60.0586	79.6525	60.0586	80.7052	60.0586	79.5344	60.0586	80.5616	60.0586	79.4833	60.0586	80.4454	60.0586	79.4892	60.0586	80.3498	60.0586	79.5383	60.0586	80.2658	60.0586	79.6163	60.0586	80.1851	60.0586	79.711	60.0586	80.1014	60.0586	79.8127	60.0586	80.0113	60.0586	79.9144
62.9883	82.9185	62.9883	82.8241	62.9883	82.9522	62.9883	82.6708	62.9883	82.9262	62.9883	82.4631	62.9883	82.8438	62.9883	82.2089	62.9883	82.7109	62.9883	81.9201	62.9883	82.5366	62.9883	81.6128	62.9883	82.3324	62.9883	81.3072	62.9883	82.1129	62.9883	81.0259	62.9883	81.8944	62.9883	80.7903	62.9883	81.6925	62.9883	80.616	62.9883	81.5194	62.9883	80.5092	62.9883	81.3806	62.9883	80.466	62.9883	81.2744	62.9883	80.4752	62.9883	81.1931	62.9883	80.5227	62.9883	81.1267	62.9883	80.5946	62.9883	81.0654	62.9883	80.6793	62.9883	81.0019	62.9883	80.7676	62.9883	80.9316	62.9883	80.8531
64.4531	83.3597	64.4531	83.2683	64.4531	83.3887	64.4531	83.1164	64.4531	83.3564	64.4531	82.9089	64.4531	83.2664	64.4531	82.6539	64.4531	83.1255	64.4531	82.364	64.4531	82.9429	64.4531	82.0558	64.4531	82.7316	64.4531	81.7502	64.4531	82.5069	64.4531	81.4701	64.4531	82.2859	64.4531	81.2369	64.4531	82.0851	64.4531	81.066	64.4531	81.9163	64.4531	80.963	64.4531	81.7849	64.4531	80.9234	64.4531	81.6879	64.4531	80.9358	64.4531	81.6167	64.4531	80.9857	64.4531	81.5602	64.4531	81.0592	64.4531	81.5081	64.4531	81.1442	64.4531	81.4523	64.4531	81.2314	64.4531	81.3882	64.4531	81.3141
67.3828	84.2661	67.3828	84.1742	67.3828	84.2905	67.3828	84.0168	67.3828	84.2483	67.3828	83.7996	67.3828	84.1437	67.3828	83.5321	67.3828	83.9842	67.3828	83.2283	67.3828	83.7805	67.3828	82.9069	67.3828	83.5473	67.3828	82.5909	67.3828	83.3023	67.3828	82.3051	67.3828	83.0651	67.3828	82.0718	67.3828	82.8544	67.3828	81.906	67.3828	82.6835	67.3828	81.8116	67.3828	82.5574	67.3828	81.7821	67.3828	82.4721	67.3828	81.8038	67.3828	82.4165	67.3828	81.8609	67.3828	82.3773	67.3828	81.9385	67.3828	82.342	67.3828	82.0244	67.3828	82.3014	67.3828	82.1089	67.3828	82.2499	67.3828	82.1854
68.8477	84.7482	68.8477	84.654	68.8477	84.7715	68.8477	84.4909	68.8477	84.7249	68.8477	84.2649	68.8477	84.6129	68.8477	83.9855	68.8477	84.443	68.8477	83.6674	68.8477	84.2268	68.8477	83.3298	68.8477	83.9793	68.8477	82.9968	68.8477	83.7194	68.8477	82.6945	68.8477	83.4678	68.8477	82.4467	68.8477	83.2444	68.8477	82.2695	68.8477	83.0636	68.8477	82.1675	68.8477	82.9309	68.8477	82.1341	68.8477	82.8419	68.8477	82.1549	68.8477	82.7848	68.8477	82.2132	68.8477	82.7451	68.8477	82.2934	68.8477	82.7097	68.8477	82.3824	68.8477	82.6686	68.8477	82.4701	68.8477	82.6159	68.8477	82.5493
71.7773	85.6265	71.7773	85.5312	71.7773	85.6463	71.7773	85.3628	71.7773	85.5918	71.7773	85.1275	71.7773	85.4674	71.7773	84.8353	71.7773	85.2813	71.7773	84.5012	71.7773	85.0455	71.7773	84.1451	71.7773	84.7763	71.7773	83.7913	71.7773	84.4937	71.7773	83.4663	71.7773	84.22	71.7773	83.1948	71.7773	83.9769	71.7773	82.9943	71.7773	83.7803	71.7773	82.8712	71.7773	83.6363	71.7773	82.8205	71.7773	83.5399	71.7773	82.829	71.7773	83.4782	71.7773	82.8805	71.7773	83.4355	71.7773	82.9585	71.7773	83.3971	71.7773	83.0489	71.7773	83.3526	71.7773	83.1403	71.7773	83.2956	71.7773	83.2243
74.707	86.3981	74.707	86.2919	74.707	86.4243	74.707	86.1089	74.707	86.3715	74.707	85.8564	74.707	86.2442	74.707	85.5466	74.707	86.0511	74.707	85.1969	74.707	85.8052	74.707	84.83	74.707	85.5238	74.707	84.4731	74.707	85.2284	74.707	84.1544	74.707	84.9432	74.707	83.8982	74.707	84.6916	74.707	83.7193	74.707	84.491	74.707	83.6202	74.707	84.3486	74.707	83.5919	74.707	84.2592	74.707	83.6186	74.707	84.2089	74.707	83.6826	74.707	84.1804	74.707	83.7675	74.707	84.1574	74.707	83.8593	74.707	84.1279	74.707	83.9474	74.707	84.0844	74.707	84.0239
77.6367	87.1724	77.6367	87.0615	77.6367	87.1981	77.6367	86.8685	77.6367	87.1397	77.6367	86.6012	77.6367	87.0027	77.6367	86.2728	77.6367	86.7968	77.6367	85.9024	77.6367	86.5365	77.6367	85.5153	77.6367	86.241	77.6367	85.142	77.6367	85.9339	77.6367	84.8141	77.6367	85.6418	77.6367	84.5588	77.6367	85.3897	77.6367	84.3924	77.6367	85.1961	77.6367	84.3156	77.6367	85.0677	77.6367	84.3162	77.6367	84.9977	77.6367	84.374	77.6367	84.9698	77.6367	84.4673	77.6367	84.9642	77.6367	84.5766	77.6367	84.9623	77.6367	84.6861	77.6367	84.95	77.6367	84.7842	77.6367	84.9183	77.6367	84.863
79.1016	87.5216	79.1016	87.4091	79.1016	87.5457	79.1016	87.2115	79.1016	87.4829	79.1016	86.9367	79.1016	87.3388	79.1016	86.5983	79.1016	87.1235	79.1016	86.2157	79.1016	86.8521	79.1016	85.8149	79.1016	86.5446	79.1016	85.4272	79.1016	86.2256	79.1016	85.0856	79.1016	85.9229	79.1016	84.8186	79.1016	85.6627	79.1016	84.6436	79.1016	85.4644	79.1016	84.5624	79.1016	85.3347	79.1016	84.5626	79.1016	85.2663	79.1016	84.6233	79.1016	85.2417	79.1016	84.7218	79.1016	85.2396	79.1016	84.8373	79.1016	85.2405	79.1016	84.9532	79.1016	85.2296	79.1016	85.0568	79.1016	85.1974	79.1016	85.1397
82.0312	88.07	82.0312	87.9557	82.0312	88.0914	82.0312	87.7519	82.0312	88.0209	82.0312	87.4674	82.0312	87.8643	82.0312	87.1164	82.0312	87.632	82.0312	86.7196	82.0312	87.3398	82.0312	86.3039	82.0312	87.0087	82.0312	85.9016	82.0312	86.6653	82.0312	85.5464	82.0312	86.3392	82.0312	85.2673	82.0312	86.0593	82.0312	85.0818	82.0312	85.8468	82.0312	84.9914	82.0312	85.7093	82.0312	84.9837	82.0312	85.6389	82.0312	85.0379	82.0312	85.6164	82.0312	85.131	82.0312	85.6186	82.0312	85.2424	82.0312	85.6244	82.0312	85.355	82.0312	85.6182	82.0312	85.4557	82.0312	85.5901	82.0312	85.5357
84.9609	88.5064	84.9609	88.3714	84.9609	88.5454	84.9609	88.1451	84.9609	88.489	84.9609	87.8369	84.9609	88.3417	84.9609	87.4617	84.9609	88.1131	84.9609	87.0408	84.9609	87.8177	84.9609	86.6018	84.9609	87.4752	84.9609	86.1771	84.9609	87.1109	84.9609	85.8008	84.9609	86.7544	84.9609	85.5025	84.9609	86.4357	84.9609	85.2999	84.9609	86.1795	84.9609	85.1949	84.9609	85.9979	84.9609	85.1748	84.9609	85.8873	84.9609	85.2183	84.9609	85.8315	84.9609	85.302	84.9609	85.8082	84.9609	85.4053	84.9609	85.796	84.9609	85.5115	84.9609	85.778	84.9609	85.608	84.9609	85.7433	84.9609	85.6867
87.8906	88.6563	87.8906	88.545	87.8906	88.6661	87.8906	88.3354	87.8906	88.5765	87.8906	88.0364	87.8906	88.3948	87.8906	87.6629	87.8906	88.134	87.8906	87.237	87.8906	87.8133	87.8906	86.788	87.8906	87.4582	87.8906	86.3516	87.8906	87.0995	87.8906	85.9668	87.8906	86.7707	87.8906	85.6685	87.8906	86.5024	87.8906	85.4798	87.8906	86.3148	87.8906	85.4055	87.8906	86.2119	87.8906	85.4324	87.8906	86.1815	87.8906	85.5347	87.8906	86.2006	87.8906	85.6824	87.8906	86.2424	87.8906	85.8465	87.8906	86.2824	87.8906	86.0035	87.8906	86.3017	87.8906	86.1358	87.8906	86.2871	87.8906	86.2321
90.8203	88.8166	90.8203	88.6715	90.8203	88.8538	90.8203	88.4239	90.8203	88.7835	90.8203	88.0844	90.8203	88.6115	90.8203	87.6704	90.8203	88.3494	90.8203	87.2056	90.8203	88.0155	90.8203	86.7204	90.8203	87.6351	90.8203	86.2505	90.8203	87.2408	90.8203	85.8335	90.8203	86.8702	90.8203	85.5028	90.8203	86.5604	90.8203	85.2809	90.8203	86.3381	90.8203	85.1749	90.8203	86.2106	90.8203	85.176	90.8203	86.1642	90.8203	85.2632	90.8203	86.1706	90.8203	85.4094	90.8203	86.1973	90.8203	85.5863	90.8203	86.2165	90.8203	85.7681	90.8203	86.2079	90.8203	85.9336	90.8203	86.1595	90.8203	86.0671
95.2148	88.6729	95.2148	88.5133	95.2148	88.7136	95.2148	88.2407	95.2148	88.635	95.2148	87.8676	95.2148	88.4431	95.2148	87.4135	95.2148	88.1499	95.2148	86.9054	95.2148	87.7745	95.2148	86.3782	95.2148	87.344	95.2148	85.8726	95.2148	86.8939	95.2148	85.4311	95.2148	86.4669	95.2148	85.0909	95.2148	86.1067	95.2148	84.8756	95.2148	85.8474	95.2148	84.79	95.2148	85.7022	95.2148	84.8201	95.2148	85.6591	95.2148	84.9385	95.2148	85.6871	95.2148	85.1118	95.2148	85.7484	95.2148	85.3068	95.2148	85.8087	95.2148	85.4949	95.2148	85.8419	95.2148	85.6538	95.2148	85.8311	95.2148	85.7684
98.1445	88.4612	98.1445	88.2829	98.1445	88.5138	98.1445	87.9852	98.1445	88.44	98.1445	87.5814	98.1445	88.2453	98.1445	87.0914	98.1445	87.9413	98.1445	86.5432	98.1445	87.5469	98.1445	85.9724	98.1445	87.089	98.1445	85.4206	98.1445	86.6034	98.1445	84.932	98.1445	86.1344	98.1445	84.5462	98.1445	85.7297	98.1445	84.2909	98.1445	85.429	98.1445	84.1758	98.1445	85.2509	98.1445	84.1907	98.1445	85.1863	98.1445	84.3096	98.1445	85.2031	98.1445	84.4967	98.1445	85.26	98.1445	84.7145	98.1445	85.3179	98.1445	84.929	98.1445	85.3467	98.1445	85.1133	98.1445	85.3269	98.1445	85.249
101.074	88.232	101.074	88.0325	101.074	88.2974	101.074	87.7061	101.074	88.2274	101.074	87.2667	101.074	88.0265	101.074	86.7352	101.074	87.7055	101.074	86.14	101.074	87.2819	101.074	85.5167	101.074	86.7813	101.074	84.9071	101.074	86.2389	101.074	84.3547	101.074	85.6997	101.074	83.9003	101.074	85.2157	101.074	83.575	101.074	84.8348	101.074	83.3949	101.074	84.5858	101.074	83.358	101.074	84.4672	101.074	83.444	101.074	84.4487	101.074	83.6187	101.074	84.4854	101.074	83.841	101.074	84.532	101.074	84.0708	101.074	84.5521	101.074	84.2746	101.074	84.5216	101.074	84.4289
105.469	88.627	105.469	88.3922	105.469	88.7228	105.469	88.0259	105.469	88.6776	105.469	87.5422	105.469	88.4949	105.469	86.9617	105.469	88.1832	105.469	86.3115	105.469	87.7562	105.469	85.6246	105.469	87.2325	105.469	84.9371	105.469	86.637	105.469	84.285	105.469	86.0016	105.469	83.7004	105.469	85.3663	105.469	83.2095	105.469	84.7759	105.469	82.8321	105.469	84.2719	105.469	82.5809	105.469	83.8808	105.469	82.4583	105.469	83.6057	105.469	82.4529	105.469	83.4263	105.469	82.5385	105.469	83.3082	105.469	82.6792	105.469	83.2138	105.469	82.8386	105.469	83.1129	105.469	82.9882
108.398	89.2411	108.398	88.9937	108.398	89.3572	108.398	88.6239	108.398	89.34	108.398	88.148	108.398	89.1934	108.398	87.59	108.398	88.9275	108.398	86.9806	108.398	88.5572	108.398	86.355	108.398	88.1017	108.398	85.7484	108.398	87.5844	108.398	85.1905	108.398	87.0313	108.398	84.701	108.398	86.4707	108.398	84.2888	108.398	85.93	108.398	83.9556	108.398	85.4325	108.398	83.7002	108.398	84.9946	108.398	83.5213	108.398	84.6237	108.398	83.417	108.398	84.3192	108.398	83.382	108.398	84.0737	108.398	83.4062	108.398	83.876	108.398	83.4768	108.398	83.7146	108.398	83.5818
112.793	89.663	112.793	89.3788	112.793	89.8083	112.793	88.9669	112.793	89.8126	112.793	88.4496	112.793	89.6826	112.793	87.8605	112.793	89.4331	112.793	87.2439	112.793	89.0864	112.793	86.6516	112.793	88.6722	112.793	86.1333	112.793	88.2256	112.793	85.7266	112.793	87.7842	112.793	85.4475	112.793	87.382	112.793	85.2901	112.793	87.0433	112.793	85.2341	112.793	86.7769	112.793	85.2546	112.793	86.5774	112.793	85.3283	112.793	86.4296	112.793	85.4358	112.793	86.3159	112.793	85.5612	112.793	86.2206	112.793	85.6919	112.793	86.1309	112.793	85.818	112.793	86.0373	112.793	85.9338
117.188	89.3697	117.188	89.0617	117.188	89.5216	117.188	88.6087	117.188	89.5165	117.188	88.0335	117.188	89.3624	117.188	87.3718	117.188	89.0765	117.188	86.6727	117.188	88.6851	117.188	85.9962	117.188	88.223	117.188	85.4038	117.188	87.7326	117.188	84.9456	117.188	87.2597	117.188	84.6474	117.188	86.8458	117.188	84.5074	117.188	86.5196	117.188	84.5027	117.188	86.2895	117.188	84.6012	117.188	86.1446	117.188	84.7697	117.188	86.0616	117.188	84.9778	117.188	86.0138	117.188	85.1988	117.188	85.9764	117.188	85.4104	117.188	85.9286	117.188	85.596	117.188	85.8548	117.188	85.7452
120.117	89.4077	120.117	89.1068	120.117	89.5418	120.117	88.6508	120.117	89.5077	120.117	88.0639	120.117	89.3137	120.117	87.3836	120.117	88.978	120.117	86.6617	120.117	88.5294	120.117	85.9616	120.117	88.0073	120.117	85.3486	120.117	87.4606	120.117	84.8764	120.117	86.944	120.117	84.5735	120.117	86.508	120.117	84.4392	120.117	86.1872	120.117	84.451	120.117	85.9901	120.117	84.5756	120.117	85.9002	120.117	84.7772	120.117	85.8859	120.117	85.0213	120.117	85.9116	120.117	85.2754	120.117	85.9445	120.117	85.5112	120.117	85.9575	120.117	85.7066	120.117	85.9296	120.117	85.8476
124.512	89.826	124.512	89.5015	124.512	89.9788	124.512	89.0181	124.512	89.958	124.512	88.4014	124.512	89.7717	124.512	87.6918	124.512	89.4378	124.512	86.9441	124.512	88.9837	124.512	86.2241	124.512	88.4462	124.512	85.5972	124.512	87.8702	124.512	85.1136	124.512	87.3055	124.512	84.7957	124.512	86.7994	124.512	84.6369	124.512	86.3876	124.512	84.6115	124.512	86.0855	124.512	84.6866	124.512	85.8877	124.512	84.8294	124.512	85.7747	124.512	85.0094	124.512	85.7211	124.512	85.1986	124.512	85.7012	124.512	85.3724	124.512	85.6903	124.512	85.5127	124.512	85.6661	124.512	85.6104
128.906	89.8114	128.906	89.4757	128.906	89.9684	128.906	88.9746	128.906	89.947	128.906	88.3371	128.906	89.759	128.906	87.6113	128.906	89.4276	128.906	86.865	128.906	88.9866	128.906	86.1791	128.906	88.4805	128.906	85.6309	128.906	87.9606	128.906	85.2702	128.906	87.4797	128.906	85.1043	128.906	87.0809	128.906	85.1021	128.906	86.7877	128.906	85.215	128.906	86.5993	128.906	85.3949	128.906	86.4954	128.906	85.6039	128.906	86.4486	128.906	85.8144	128.906	86.4341	128.906	86.0066	128.906	86.4326	128.906	86.1668	128.906	86.4296	128.906	86.2876	128.906	86.4118	128.906	86.3676
133.301	89.6267	133.301	89.2774	133.301	89.7797	133.301	88.7433	133.301	89.7386	133.301	88.053	133.301	89.5176	133.301	87.2566	133.301	89.143	133.301	86.4298	133.301	88.6538	133.301	85.67	133.301	88.102	133.301	85.078	133.301	87.5496	133.301	84.7246	133.301	87.0614	133.301	84.6229	133.301	86.6906	133.301	84.7303	133.301	86.463	133.301	84.9776	133.301	86.3707	133.301	85.2976	133.301	86.3801	133.301	85.6379	133.301	86.4494	133.301	85.9616	133.301	86.5423	133.301	86.2429	133.301	86.6321	133.301	86.4652	133.301	86.6994	133.301	86.6198	133.301	86.7285	133.301	86.7056
139.16	89.515	139.16	89.1811	139.16	89.6403	139.16	88.6481	139.16	89.5605	139.16	87.9412	139.16	89.2909	139.16	87.1064	139.16	88.8589	139.16	86.215	139.16	88.3045	139.16	85.3634	139.16	87.6819	139.16	84.6589	139.16	87.0571	139.16	84.1885	139.16	86.5009	139.16	83.9853	139.16	86.075	139.16	84.02	139.16	85.8127	139.16	84.2259	139.16	85.7085	139.16	84.5311	139.16	85.725	139.16	84.8764	139.16	85.8117	139.16	85.2182	139.16	85.9231	139.16	85.5257	139.16	86.0251	139.16	85.7776	139.16	86.0945	139.16	85.9614	139.16	86.1145	139.16	86.0729
143.555	89.2066	143.555	88.8856	143.555	89.3152	143.555	88.3627	143.555	89.215	143.555	87.6658	143.555	88.923	143.555	86.8447	143.555	88.4689	143.555	85.9751	143.555	87.897	143.555	85.1556	143.555	87.2656	143.555	84.4905	143.555	86.6437	143.555	84.0583	143.555	86.1026	143.555	83.8817	143.555	85.6999	143.555	83.9267	143.555	85.4623	143.555	84.1287	143.555	85.3787	143.555	84.4212	143.555	85.4094	143.555	84.7491	143.555	85.5055	143.555	85.071	143.555	85.6244	143.555	85.3565	143.555	85.7352	143.555	85.5846	143.555	85.8167	143.555	85.7441	143.555	85.8532	143.555	85.8322
147.949	89.0318	147.949	88.6949	147.949	89.1361	147.949	88.1357	147.949	89.0135	147.949	87.3844	147.949	88.6843	147.949	86.4979	147.949	88.1837	147.949	85.5653	147.949	87.5635	147.949	84.7056	147.949	86.8919	147.949	84.043	147.949	86.2492	147.949	83.6611	147.949	85.7156	147.949	83.5678	147.949	85.3503	147.949	83.705	147.949	85.1729	147.949	83.9906	147.949	85.1597	147.949	84.3511	147.949	85.2601	147.949	84.7314	147.949	85.4186	147.949	85.0919	147.949	85.5899	147.949	85.4041	147.949	85.7422	147.949	85.6484	147.949	85.8542	147.949	85.8147	147.949	85.9109	147.949	85.9007
153.809	89.3284	153.809	88.9846	153.809	89.4089	153.809	88.3846	153.809	89.2343	153.809	87.5545	153.809	88.827	153.809	86.548	153.809	88.2254	153.809	85.4579	153.809	87.4876	153.809	84.4212	153.809	86.6938	153.809	83.5998	153.809	85.9432	153.809	83.1195	153.809	85.3375	153.809	83.0051	153.809	84.9507	153.809	83.1828	153.809	84.7999	153.809	83.5425	153.809	84.845	153.809	83.99	153.809	85.0162	153.809	84.4595	153.809	85.2456	153.809	84.9053	153.809	85.4817	153.809	85.2936	153.809	85.6889	153.809	85.5996	153.809	85.8423	153.809	85.8084	153.809	85.9227	153.809	85.9148
159.668	89.6848	159.668	89.3366	159.668	89.7505	159.668	88.7102	159.668	89.5425	159.668	87.8274	159.668	89.0831	159.668	86.7365	159.668	88.4101	159.668	85.5258	159.668	87.5819	159.668	84.3373	159.668	86.6828	159.668	83.3573	159.668	85.8241	159.668	82.753	159.668	85.1293	159.668	82.5796	159.668	84.696	159.668	82.7588	159.668	84.5505	159.668	83.1564	159.668	84.6402	159.668	83.6574	159.668	84.8725	159.668	84.1854	159.668	85.1602	159.668	84.6906	159.668	85.4418	159.668	85.1367	159.668	85.6782	159.668	85.4963	159.668	85.8438	159.668	85.7509	159.668	85.9197	159.668	85.8917
165.527	89.886	165.527	89.5677	165.527	89.9247	165.527	88.9744	165.527	89.6911	165.527	88.1255	165.527	89.2044	165.527	87.0625	165.527	88.4974	165.527	85.86	165.527	87.6212	165.527	84.6391	165.527	86.6509	165.527	83.5678	165.527	85.69	165.527	82.8207	165.527	84.8625	165.527	82.4952	165.527	84.2815	165.527	82.5561	165.527	83.9989	165.527	82.879	165.527	83.9798	165.527	83.3315	165.527	84.1341	165.527	83.8156	165.527	84.3694	165.527	84.2678	165.527	84.6201	165.527	84.6479	165.527	84.8477	165.527	84.9316	165.527	85.0285	165.527	85.1073	165.527	85.1434	165.527	85.1748
171.387	89.7518	171.387	89.4177	171.387	89.7968	171.387	88.8003	171.387	89.5602	171.387	87.9216	171.387	89.0625	171.387	86.8276	171.387	88.34	171.387	85.5992	171.387	87.4491	171.387	84.3642	171.387	86.472	171.387	83.2934	171.387	85.5188	171.387	82.5562	171.387	84.7152	171.387	82.2395	171.387	84.1669	171.387	82.3065	171.387	83.9139	171.387	82.6426	171.387	83.9162	171.387	83.1262	171.387	84.0882	171.387	83.6617	171.387	84.3455	171.387	84.1788	171.387	84.6261	171.387	84.6261	171.387	84.8885	171.387	84.9681	171.387	85.1016	171.387	85.1848	171.387	85.2376	171.387	85.2716
177.246	89.709	177.246	89.4191	177.246	89.7067	177.246	88.8425	177.246	89.4197	177.246	88.0004	177.246	88.8683	177.246	86.9363	177.246	88.0892	177.246	85.7269	177.246	87.1407	177.246	84.493	177.246	86.1105	177.246	83.3987	177.246	85.1208	177.246	82.6142	177.246	84.3161	177.246	82.24	177.246	83.8166	177.246	82.2557	177.246	83.6547	177.246	82.553	177.246	83.7583	177.246	83.0071	177.246	84.0059	177.246	83.5167	177.246	84.2926	177.246	84.008	177.246	84.5564	177.246	84.4294	177.246	84.7714	177.246	84.7478	177.246	84.929	177.246	84.9487	177.246	85.0218	177.246	85.0349
183.105	88.9763	183.105	88.6651	183.105	88.9959	183.105	88.073	183.105	88.7288	183.105	87.229	183.105	88.1945	183.105	86.1878	183.105	87.4306	183.105	85.0385	183.105	86.4984	183.105	83.9082	183.105	85.4917	183.105	82.9475	183.105	84.5404	183.105	82.2854	183.105	83.7954	183.105	81.9758	183.105	83.376	183.105	81.9861	183.105	83.3048	183.105	82.2335	183.105	83.4987	183.105	82.6274	183.105	83.8286	183.105	83.0887	183.105	84.1812	183.105	83.5536	183.105	84.4832	183.105	83.9751	183.105	84.6977	183.105	84.3232	183.105	84.8128	183.105	84.5836	183.105	84.8296	183.105	84.7525
188.965	89.2038	188.965	88.8282	188.965	89.2459	188.965	88.1295	188.965	88.9594	188.965	87.1391	188.965	88.3638	188.965	85.9216	188.965	87.4964	188.965	84.5909	188.965	86.422	188.965	83.32	188.965	85.2483	188.965	82.3115	188.965	84.1403	188.965	81.7107	188.965	83.3063	188.965	81.5307	188.965	82.9113	188.965	81.6816	188.965	82.9666	188.965	82.0552	188.965	83.3336	188.965	82.5672	188.965	83.8382	188.965	83.1525	188.965	84.3517	188.965	83.7518	188.965	84.7987	188.965	84.31	188.965	85.1387	188.965	84.7814	188.965	85.3505	188.965	85.1344	188.965	85.4228	188.965	85.3507
196.289	90.1635	196.289	89.7358	196.289	90.2361	196.289	88.9555	196.289	89.9617	196.289	87.8413	196.289	89.358	196.289	86.4403	196.289	88.4543	196.289	84.8526	196.289	87.2989	196.289	83.2638	196.289	85.9735	196.289	81.9457	196.289	84.6175	196.289	81.1453	196.289	83.4482	196.289	80.9084	196.289	82.712	196.289	81.0827	196.289	82.5253	196.289	81.4895	196.289	82.7751	196.289	82.0191	196.289	83.2406	196.289	82.6147	196.289	83.749	196.289	83.2319	196.289	84.2093	196.289	83.8194	196.289	84.5793	196.289	84.3223	196.289	84.8334	196.289	84.6937	196.289	84.9486	196.289	84.9052
203.613	89.7819	203.613	89.3723	203.613	89.8628	203.613	88.6419	203.613	89.6181	203.613	87.6135	203.613	89.0607	203.613	86.3338	203.613	88.2149	203.613	84.8874	203.613	87.1231	203.613	83.413	203.613	85.8583	203.613	82.1004	203.613	84.5463	203.613	81.1355	203.613	83.3818	203.613	80.6032	203.613	82.5858	203.613	80.4501	203.613	82.2678	203.613	80.5511	203.613	82.3285	203.613	80.791	203.613	82.5551	203.613	81.0915	203.613	82.7693	203.613	81.4041	203.613	82.8792	203.613	81.6989	203.613	82.865	203.613	81.9603	203.613	82.7524	203.613	82.1879	203.613	82.5838	203.613	82.3926
210.938	90.254	210.938	89.6981	210.938	90.4321	210.938	88.7714	210.938	90.2382	210.938	87.5021	210.938	89.6879	210.938	85.9578	210.938	88.8077	210.938	84.276	210.938	87.6412	210.938	82.6868	210.938	86.2628	210.938	81.4629	210.938	84.8081	210.938	80.7556	210.938	83.5073	210.938	80.4951	210.938	82.657	210.938	80.5087	210.938	82.4314	210.938	80.6675	210.938	82.7119	210.938	80.914	210.938	83.2129	210.938	81.2314	210.938	83.6969	210.938	81.6141	210.938	84.0334	210.938	82.0534	210.938	84.17	210.938	82.5315	210.938	84.1025	210.938	83.0201	210.938	83.857	210.938	83.4786
218.262	91.305	218.262	90.7789	218.262	91.4269	218.262	89.8393	218.262	91.1618	218.262	88.49	218.262	90.5341	218.262	86.7633	218.262	89.5763	218.262	84.7583	218.262	88.3328	218.262	82.7137	218.262	86.8686	218.262	81.0531	218.262	85.2883	218.262	80.1727	218.262	83.7685	218.262	80.0532	218.262	82.5749	218.262	80.3662	218.262	81.9711	218.262	80.8521	218.262	82.0095	218.262	81.4	218.262	82.4815	218.262	81.9703	218.262	83.1113	218.262	82.5406	218.262	83.7017	218.262	83.0877	218.262	84.1449	218.262	83.5845	218.262	84.3936	218.262	83.9998	218.262	84.4389	218.262	84.2971
225.586	92.0593	225.586	91.6404	225.586	92.076	225.586	90.807	225.586	91.7109	225.586	89.5579	225.586	90.993	225.586	87.913	225.586	89.9618	225.586	85.9401	225.586	88.6726	225.586	83.8163	225.586	87.2058	225.586	81.9099	225.586	85.6848	225.586	80.7056	225.586	84.2943	225.586	80.3982	225.586	83.2634	225.586	80.7258	225.586	82.7609	225.586	81.354	225.586	82.7764	225.586	82.0997	225.586	83.1487	225.586	82.8786	225.586	83.6949	225.586	83.6338	225.586	84.2764	225.586	84.3108	225.586	84.7968	225.586	84.8594	225.586	85.1885	225.586	85.2396	225.586	85.4063	225.586	85.4255
232.91	92.1887	232.91	91.8791	232.91	92.1208	232.91	91.175	232.91	91.7001	232.91	90.0683	232.91	90.9589	232.91	88.566	232.91	89.9381	232.91	86.7092	232.91	88.6886	232.91	84.623	232.91	87.2782	232.91	82.6111	232.91	85.8077	232.91	81.1877	232.91	84.4371	232.91	80.727	232.91	83.3863	232.91	81.041	232.91	82.8381	232.91	81.6935	232.91	82.7899	232.91	82.4062	232.91	83.0644	232.91	83.0685	232.91	83.4712	232.91	83.6449	232.91	83.8955	232.91	84.1233	232.91	84.2807	232.91	84.4927	232.91	84.5888	232.91	84.7364	232.91	84.7835	232.91	84.8361
241.699	91.8845	241.699	91.6354	241.699	91.7575	241.699	90.9975	241.699	91.2769	241.699	89.9705	241.699	90.4752	241.699	88.5728	241.699	89.3952	241.699	86.8588	241.699	88.0954	241.699	84.9563	241.699	86.6597	241.699	83.1213	241.699	85.2164	241.699	81.7396	241.699	83.9474	241.699	81.1194	241.699	83.0461	241.699	81.2236	241.699	82.6113	241.699	81.7741	241.699	82.5902	241.699	82.5149	241.699	82.8518	241.699	83.2851	241.699	83.2779	241.699	83.9859	241.699	83.7801	241.699	84.5547	241.699	84.2833	241.699	84.9545	241.699	84.7199	241.699	85.1678	241.699	85.0352	241.699	85.1917
250.488	91.6604	250.488	91.5171	250.488	91.4425	250.488	90.9935	250.488	90.8934	250.488	90.0836	250.488	90.0515	250.488	88.8	250.488	88.96	250.488	87.1869	250.488	87.6691	250.488	85.3512	250.488	86.2491	250.488	83.5187	250.488	84.822	250.488	82.0714	250.488	83.594	250.488	81.3972	250.488	82.8104	250.488	81.5561	250.488	82.5802	250.488	82.2629	250.488	82.7673	250.488	83.1929	250.488	83.1329	250.488	84.125	250.488	83.5139	250.488	84.9209	250.488	83.8675	250.488	85.4913	250.488	84.233	250.488	85.7847	250.488	84.6577	250.488	85.7893	250.488	85.1247	250.488	85.5407
259.277	92.4937	259.277	92.2076	259.277	92.4124	259.277	91.5408	259.277	91.9828	259.277	90.4918	259.277	91.225	259.277	89.0793	259.277	90.156	259.277	87.3623	259.277	88.7936	259.277	85.4796	259.277	87.1762	259.277	83.7019	259.277	85.4185	259.277	82.4045	259.277	83.8054	259.277	81.8404	259.277	82.7982	259.277	81.9419	259.277	82.676	259.277	82.4815	259.277	83.2104	259.277	83.2819	259.277	84.0076	259.277	84.2234	259.277	84.8398	259.277	85.1908	259.277	85.6188	259.277	86.0647	259.277	86.2992	259.277	86.744	259.277	86.8384	259.277	87.1663	259.277	87.1902	259.277	87.3108
268.066	92.1879	268.066	91.9415	268.066	92.1429	268.066	91.3786	268.066	91.8305	268.066	90.4803	268.066	91.2643	268.066	89.2389	268.066	90.4423	268.066	87.6685	268.066	89.3501	268.066	85.8315	268.066	87.9786	268.066	83.8996	268.066	86.3628	268.066	82.2346	268.066	84.6635	268.066	81.3131	268.066	83.2695	268.066	81.3061	268.066	82.6634	268.066	81.8956	268.066	82.8671	268.066	82.6749	268.066	83.3884	268.066	83.3997	268.066	83.7867	268.066	83.9523	268.066	83.885	268.066	84.2706	268.066	83.7226	268.066	84.3214	268.066	83.5098	268.066	84.1184	268.066	83.5055	268.066	83.772
276.855	91.6112	276.855	91.2537	276.855	91.7548	276.855	90.6803	276.855	91.6721	276.855	89.8759	276.855	91.3406	276.855	88.8209	276.855	90.7361	276.855	87.506	276.855	89.8418	276.855	85.9562	276.855	88.6597	276.855	84.2693	276.855	87.2308	276.855	82.6618	276.855	85.6807	276.855	81.4608	276.855	84.2921	276.855	80.925	276.855	83.4916	276.855	81.0139	276.855	83.5257	276.855	81.4628	276.855	84.1539	276.855	82.0218	276.855	84.9236	276.855	82.5516	276.855	85.5069	276.855	83.0127	276.855	85.743	276.855	83.4457	276.855	85.5963	276.855	83.9354	276.855	85.1379	276.855	84.5262
287.109	92.4154	287.109	92.0932	287.109	92.4345	287.109	91.4581	287.109	92.1652	287.109	90.5099	287.109	91.6238	287.109	89.2668	287.109	90.8269	287.109	87.7836	287.109	89.7912	287.109	86.1757	287.109	88.5417	287.109	84.6364	287.109	87.1324	287.109	83.4006	287.109	85.6838	287.109	82.6315	287.109	84.4176	287.109	82.3361	287.109	83.6048	287.109	82.4187	287.109	83.3821	287.109	82.7776	287.109	83.6552	287.109	83.3349	287.109	84.2334	287.109	84.0215	287.109	84.9447	287.109	84.7605	287.109	85.6333	287.109	85.4618	287.109	86.1571	287.109	86.0271	287.109	86.4149	287.109	86.3658
297.363	92.0802	297.363	91.7999	297.363	92.0948	297.363	91.2639	297.363	91.8367	297.363	90.4853	297.363	91.3026	297.363	89.4834	297.363	90.4941	297.363	88.2898	297.363	89.4227	297.363	86.9603	297.363	88.1195	297.363	85.5871	297.363	86.6595	297.363	84.3061	297.363	85.1949	297.363	83.2757	297.363	83.9719	297.363	82.6163	297.363	83.2552	297.363	82.3487	297.363	83.1582	297.363	82.4007	297.363	83.5632	297.363	82.6709	297.363	84.2192	297.363	83.0728	297.363	84.8687	297.363	83.543	297.363	85.3209	297.363	84.0399	297.363	85.4807	297.363	84.5383	297.363	85.349	297.363	85.0006
307.617	92.7264	307.617	92.5803	307.617	92.5462	307.617	92.0662	307.617	92.0927	307.617	91.1619	307.617	91.4174	307.617	89.877	307.617	90.5567	307.617	88.2765	307.617	89.5243	307.617	86.5218	307.617	88.3236	307.617	84.8973	307.617	86.9801	307.617	83.7244	307.617	85.5819	307.617	83.1377	307.617	84.292	307.617	83.0108	307.617	83.2697	307.617	83.1327	307.617	82.5338	307.617	83.3414	307.617	81.9852	307.617	83.538	307.617	81.6239	307.617	83.6854	307.617	81.6481	307.617	83.8072	307.617	82.1779	307.617	83.9395	307.617	82.9657	307.617	84.0444	307.617	83.6344	307.617	83.9884
319.336	91.9796	319.336	92.0257	319.336	91.6504	319.336	91.7275	319.336	91.0931	319.336	91.0423	319.336	90.3295	319.336	89.9614	319.336	89.3456	319.336	88.5271	319.336	88.1275	319.336	86.8639	319.336	86.7262	319.336	85.216	319.336	85.3296	319.336	83.92	319.336	84.2632	319.336	83.2196	319.336	83.7743	319.336	83.0926	319.336	83.7707	319.336	83.3462	319.336	83.9445	319.336	83.7802	319.336	84.0416	319.336	84.2239	319.336	83.9327	319.336	84.531	319.336	83.5962	319.336	84.5935	319.336	83.1339	319.336	84.363	319.336	82.789	319.336	83.8729	319.336	82.8268	319.336	83.2708
329.59	92.4087	329.59	92.2134	329.59	92.3885	329.59	91.7624	329.59	92.16	329.59	91.0103	329.59	91.6803	329.59	89.9297	329.59	90.8696	329.59	88.5313	329.59	89.6411	329.59	86.8953	329.59	87.938	329.59	85.2169	329.59	85.8044	329.59	83.818	329.59	83.6099	329.59	83.0148	329.59	82.3478	329.59	82.8829	329.59	82.7077	329.59	83.2375	329.59	83.8868	329.59	83.825	329.59	85.0079	329.59	84.4351	329.59	85.7443	329.59	84.9088	329.59	85.9965	329.59	85.1287	329.59	85.7576	329.59	85.0375	329.59	85.164	329.59	84.7062	329.59	84.5792	329.59	84.4259
341.309	93.2659	341.309	92.8869	341.309	93.4621	341.309	92.2888	341.309	93.469	341.309	91.4164	341.309	93.2313	341.309	90.223	341.309	92.6636	341.309	88.7057	341.309	91.6783	341.309	86.9591	341.309	90.2043	341.309	85.2358	341.309	88.2078	341.309	83.9061	341.309	85.7791	341.309	83.1875	341.309	83.4583	341.309	82.957	341.309	82.5273	341.309	82.9746	341.309	83.3809	341.309	83.1224	341.309	84.8148	341.309	83.4157	341.309	86.041	341.309	83.899	341.309	86.8448	341.309	84.5295	341.309	87.1906	341.309	85.1781	341.309	87.1221	341.309	85.7559	341.309	86.7638	341.309	86.2779
353.027	93.5348	353.027	93.1597	353.027	93.8046	353.027	92.6488	353.027	93.9242	353.027	91.9138	353.027	93.7969	353.027	90.8523	353.027	93.3188	353.027	89.4004	353.027	92.4076	353.027	87.6	353.027	91.0075	353.027	85.7024	353.027	89.0845	353.027	84.2227	353.027	86.6589	353.027	83.5993	353.027	84.0216	353.027	83.6805	353.027	82.3119	353.027	83.9994	353.027	82.7814	353.027	84.2405	353.027	84.4461	353.027	84.2988	353.027	86.0345	353.027	84.2565	353.027	87.1302	353.027	84.3568	353.027	87.6415	353.027	84.8001	353.027	87.5922	353.027	85.529	353.027	87.1011	353.027	86.3529
366.211	93.5233	366.211	93.4786	366.211	93.436	366.211	93.2086	366.211	93.263	366.211	92.5976	366.211	92.9929	366.211	91.5439	366.211	92.5609	366.211	90.0014	366.211	91.8703	366.211	88.033	366.211	90.8191	366.211	85.8909	366.211	89.316	366.211	84.0552	366.211	87.2978	366.211	82.9915	366.211	84.7998	366.211	82.7613	366.211	82.1613	366.211	83.1178	366.211	80.2132	366.211	83.7485	366.211	79.6054	366.211	84.3067	366.211	80.1066	366.211	84.5017	366.211	81.2252	366.211	84.247	366.211	82.4141	366.211	83.762	366.211	83.2355	366.211	83.4673	366.211	83.5517	366.211	83.5059
379.395	92.4062	379.395	92.518	379.395	92.2293	379.395	92.495	379.395	92.006	379.395	92.2305	379.395	91.7145	379.395	91.6163	379.395	91.311	379.395	90.581	379.395	90.7432	379.395	89.1232	379.395	89.9585	379.395	87.356	379.395	88.9105	379.395	85.5692	379.395	87.5671	379.395	84.2097	379.395	85.9155	379.395	83.5803	379.395	83.9592	379.395	83.549	379.395	81.7503	379.395	83.7541	379.395	79.6542	379.395	83.8408	379.395	78.6983	379.395	83.4808	379.395	79.0997	379.395	82.4058	379.395	79.4636	379.395	80.5214	379.395	78.9247	379.395	78.2035	379.395	77.6234	379.395	76.8778
392.578	92.7096	392.578	93.0135	392.578	92.2973	392.578	93.0435	392.578	91.8964	392.578	92.6635	392.578	91.5024	392.578	91.7987	392.578	91.0051	392.578	90.4547	392.578	90.2924	392.578	88.7552	392.578	89.3319	392.578	86.9879	392.578	88.2003	392.578	85.5415	392.578	87.0705	392.578	84.6223	392.578	86.1196	392.578	84.0959	392.578	85.3591	392.578	83.7321	392.578	84.5666	392.578	83.4128	392.578	83.424	392.578	83.1037	392.578	81.7341	392.578	82.7674	392.578	79.7781	392.578	82.3406	392.578	78.6991	392.578	81.7828	392.578	79.052	392.578	81.1364	392.578	79.8246	392.578	80.493
405.762	91.9521	405.762	92.5951	405.762	91.6058	405.762	93.0862	405.762	91.6972	405.762	93.0905	405.762	91.8694	405.762	92.4533	405.762	91.7032	405.762	91.1344	405.762	90.9938	405.762	89.1941	405.762	89.7208	405.762	86.8777	405.762	88.0191	405.762	84.7712	405.762	86.2467	405.762	83.5983	405.762	84.9931	405.762	83.3777	405.762	84.6391	405.762	83.505	405.762	84.963	405.762	83.5441	405.762	85.5236	405.762	83.3477	405.762	85.931	405.762	82.9131	405.762	85.8053	405.762	82.2209	405.762	84.7687	405.762	81.0309	405.762	82.451	405.762	78.9029	405.762	78.7772	405.762	76.6608
420.41	92.0424	420.41	91.6153	420.41	93.0321	420.41	91.8824	420.41	93.9515	420.41	92.2637	420.41	94.3574	420.41	92.1894	420.41	94.0844	420.41	91.3933	420.41	93.1045	420.41	89.8268	420.41	91.4305	420.41	87.6423	420.41	89.0782	420.41	85.3636	420.41	86.1625	420.41	83.9516	420.41	83.4761	420.41	83.8237	420.41	83.0123	420.41	84.2748	420.41	84.6636	420.41	84.5664	420.41	86.5547	420.41	84.2689	420.41	87.988	420.41	83.1185	420.41	88.762	420.41	81.1096	420.41	88.6913	420.41	78.8697	420.41	87.5512	420.41	78.486	420.41	85.1332	420.41	81.542
435.059	92.7347	435.059	92.3324	435.059	93.5183	435.059	92.4075	435.059	94.2971	435.059	92.5836	435.059	94.7406	435.059	92.3815	435.059	94.6749	435.059	91.5366	435.059	94.0497	435.059	90.0093	435.059	92.8654	435.059	87.9522	435.059	91.1018	435.059	85.7659	435.059	88.6927	435.059	84.1225	435.059	85.6375	435.059	83.5391	435.059	82.6457	435.059	83.8215	435.059	82.0904	435.059	84.343	435.059	84.0806	435.059	84.491	435.059	86.2348	435.059	83.8356	435.059	87.5984	435.059	82.3099	435.059	87.8806	435.059	80.5994	435.059	86.9444	435.059	80.2402	435.059	84.8199	435.059	82.0657
451.172	94.1047	451.172	93.4651	451.172	94.4819	451.172	92.7471	451.172	94.5035	451.172	92.1463	451.172	94.1429	451.172	91.6233	451.172	93.4418	451.172	90.8958	451.172	92.4761	451.172	89.7253	451.172	91.2472	451.172	88.0925	451.172	89.629	451.172	86.2477	451.172	87.4833	451.172	84.6802	451.172	84.9559	451.172	83.7545	451.172	82.8427	451.172	83.3466	451.172	81.6313	451.172	83.1919	451.172	80.3184	451.172	83.0878	451.172	79.6931	451.172	82.7837	451.172	82.4667	451.172	82.4695	451.172	85.3464	451.172	83.0146	451.172	86.6069	451.172	84.3477	451.172	86.5112	451.172	85.6283
465.82	92.7073	465.82	93.6259	465.82	91.6311	465.82	94.106	465.82	90.7346	465.82	93.9792	465.82	90.2446	465.82	93.1841	465.82	90.1055	465.82	91.7527	465.82	90.0199	465.82	89.8205	465.82	89.6521	465.82	87.6824	465.82	88.7699	465.82	85.8182	465.82	87.2954	465.82	84.6223	465.82	85.3744	465.82	84.0378	465.82	83.4466	465.82	83.8857	465.82	81.8849	465.82	84.3261	465.82	80.2753	465.82	85.4554	465.82	77.4321	465.82	86.7688	465.82	70.7087	465.82	87.5946	465.82	64.9986	465.82	87.4916	465.82	75.6586	465.82	86.2222	465.82	80.344	465.82	83.7602
483.398	92.9408	483.398	92.2004	483.398	93.5985	483.398	91.8495	483.398	93.8187	483.398	91.8975	483.398	93.5326	483.398	91.8519	483.398	92.823	483.398	91.2808	483.398	91.7529	483.398	90.0244	483.398	90.2838	483.398	88.1946	483.398	88.3643	483.398	86.2854	483.398	86.1717	483.398	85.1119	483.398	84.4994	483.398	84.9041	483.398	84.3568	483.398	84.973	483.398	85.2797	483.398	84.6208	483.398	86.1882	483.398	83.5117	483.398	86.6686	483.398	82.0192	483.398	86.7507	483.398	81.401	483.398	86.4515	483.398	81.1433	483.398	85.375	483.398	79.5845	483.398	82.832	483.398	79.3375
499.512	91.8002	499.512	92.404	499.512	91.7667	499.512	93.0443	499.512	92.3935	499.512	93.2318	499.512	93.2018	499.512	92.6984	499.512	93.6509	499.512	91.3627	499.512	93.4286	499.512	89.2963	499.512	92.3867	499.512	86.7878	499.512	90.4237	499.512	84.4572	499.512	87.4594	499.512	82.9693	499.512	84.0499	499.512	82.4162	499.512	83.4785	499.512	82.7083	499.512	85.8238	499.512	83.7412	499.512	87.5891	499.512	84.7698	499.512	87.9977	499.512	84.8843	499.512	87.0113	499.512	83.5683	499.512	84.8089	499.512	80.892	499.512	82.0738	499.512	78.4629	499.512	79.8697	499.512	78.4765
517.09	91.7613	517.09	91.5191	517.09	92.4306	517.09	92.1187	517.09	93.1742	517.09	92.8123	517.09	93.9445	517.09	92.7438	517.09	94.4856	517.09	91.6966	517.09	94.5164	517.09	89.77	517.09	93.8566	517.09	87.2335	517.09	92.3175	517.09	84.8228	517.09	89.6125	517.09	83.7748	517.09	85.4142	517.09	84.0693	517.09	81.3182	517.09	84.6148	517.09	82.8741	517.09	85.0591	517.09	85.5916	517.09	85.5274	517.09	87.3835	517.09	85.5914	517.09	88.3596	517.09	84.098	517.09	88.1835	517.09	79.6633	517.09	86.3649	517.09	74.6307	517.09	82.8976	517.09	78.7025
536.133	93.1539	536.133	92.2166	536.133	93.571	536.133	91.7706	536.133	93.2382	536.133	92.2103	536.133	92.4608	536.133	92.5603	536.133	91.6549	536.133	92.1239	536.133	91.0189	536.133	90.7357	536.133	90.3303	536.133	88.5172	536.133	89.1272	536.133	86.0752	536.133	87.0715	536.133	84.5407	536.133	84.3862	536.133	84.0131	536.133	82.6898	536.133	83.3651	536.133	82.6244	536.133	82.149	536.133	81.8043	536.133	81.4981	536.133	79.5653	536.133	81.9721	536.133	80.6056	536.133	81.2915	536.133	83.3141	536.133	79.1357	536.133	83.8289	536.133	80.3397	536.133	83.0997	536.133	82.3265
555.176	92.2207	555.176	91.9162	555.176	92.1327	555.176	91.6646	555.176	91.6812	555.176	91.7614	555.176	91.2973	555.176	91.828	555.176	91.2602	555.176	91.326	555.176	91.2964	555.176	89.9785	555.176	90.9221	555.176	87.8225	555.176	89.8147	555.176	85.4411	555.176	87.8719	555.176	84.1388	555.176	85.4333	555.176	84.2844	555.176	83.8939	555.176	84.6245	555.176	84.0374	555.176	84.2247	555.176	84.0937	555.176	82.9362	555.176	82.4577	555.176	81.5187	555.176	77.6849	555.176	80.7353	555.176	72.9587	555.176	80.3902	555.176	78.2704	555.176	80.7374	555.176	80.6085	555.176	81.1159
574.219	92.8089	574.219	92.3013	574.219	92.7788	574.219	91.7352	574.219	92.5855	574.219	91.8946	574.219	92.7697	574.219	92.3659	574.219	93.1943	574.219	92.2447	574.219	93.2464	574.219	91.1164	574.219	92.4673	574.219	88.9596	574.219	90.6502	574.219	86.2701	574.219	87.7485	574.219	84.5757	574.219	84.3737	574.219	84.7562	574.219	83.42	574.219	85.3003	574.219	85.4795	574.219	85.014	574.219	87.6613	574.219	83.6449	574.219	88.5977	574.219	81.8644	574.219	87.3696	574.219	80.4255	574.219	83.0517	574.219	80.004	574.219	76.5801	574.219	81.0633	574.219	78.1326	574.219	80.7096
594.727	92.3169	594.727	92.3026	594.727	91.6965	594.727	91.5451	594.727	91.279	594.727	90.6655	594.727	91.9207	594.727	90.257	594.727	93.2369	594.727	90.0173	594.727	94.0787	594.727	89.1727	594.727	93.8213	594.727	87.248	594.727	92.213	594.727	84.477	594.727	88.7987	594.727	82.7629	594.727	82.4558	594.727	83.9384	594.727	80.094	594.727	85.7143	594.727	84.7633	594.727	86.1007	594.727	86.8915	594.727	84.0484	594.727	88.098	594.727	79.0132	594.727	88.0608	594.727	75.9077	594.727	85.5715	594.727	77.0127	594.727	80.5323	594.727	78.8791	594.727	77.9893	594.727	79.279
615.234	92.2048	615.234	91.3491	615.234	92.4868	615.234	91.0105	615.234	92.0944	615.234	92.0393	615.234	91.4529	615.234	93.277	615.234	91.0195	615.234	93.4673	615.234	91.0897	615.234	92.2789	615.234	91.3087	615.234	89.8679	615.234	90.9581	615.234	86.6608	615.234	89.445	615.234	83.5455	615.234	86.1002	615.234	82.7649	615.234	80.178	615.234	85.0241	615.234	77.9811	615.234	87.1639	615.234	80.6259	615.234	87.4349	615.234	81.4168	615.234	85.2529	615.234	81.3692	615.234	81.3557	615.234	78.9526	615.234	79.2999	615.234	73.7158	615.234	77.7337	615.234	73.6609	615.234	75.1072
637.207	92.983	637.207	91.8246	637.207	92.9191	637.207	90.3365	637.207	92.0068	637.207	90.4811	637.207	91.1868	637.207	91.7439	637.207	90.8536	637.207	92.2314	637.207	90.6999	637.207	91.3941	637.207	90.3089	637.207	89.4264	637.207	89.3369	637.207	86.8955	637.207	87.5024	637.207	84.4917	637.207	84.4873	637.207	82.4555	637.207	80.4611	637.207	81.9654	637.207	78.6886	637.207	84.3503	637.207	79.0602	637.207	85.8571	637.207	77.5374	637.207	84.0849	637.207	75.6041	637.207	77.2751	637.207	71.6633	637.207	70.4303	637.207	78.1431	637.207	80.965	637.207	84.8637	637.207	85.4808
659.18	91.4036	659.18	91.8545	659.18	90.6728	659.18	91.276	659.18	91.2647	659.18	90.7494	659.18	92.6718	659.18	91.4077	659.18	93.4162	659.18	91.8454	659.18	93.0523	659.18	90.9419	659.18	91.6889	659.18	88.6391	659.18	89.4915	659.18	85.5013	659.18	86.4929	659.18	82.7118	659.18	83.0331	659.18	81.4087	659.18	81.4802	659.18	82.4923	659.18	83.0839	659.18	84.631	659.18	85.2051	659.18	85.0887	659.18	86.6684	659.18	82.5446	659.18	86.4945	659.18	77.8834	659.18	83.3297	659.18	77.9165	659.18	76.4085	659.18	81.0325	659.18	79.5458	659.18	82.2727
682.617	91.5012	682.617	91.6212	682.617	91.3156	682.617	91.1429	682.617	91.6354	682.617	90.6614	682.617	91.9146	682.617	91.2104	682.617	91.8751	682.617	91.9224	682.617	91.6002	682.617	91.5038	682.617	91.0217	682.617	89.8246	682.617	89.9832	682.617	87.4061	682.617	88.2243	682.617	84.833	682.617	85.2854	682.617	81.9615	682.617	80.8662	682.617	78.6786	682.617	79.01	682.617	80.1351	682.617	82.1867	682.617	82.5667	682.617	85.0615	682.617	80.7085	682.617	86.1581	682.617	76.4577	682.617	84.3278	682.617	78.6376	682.617	79.5473	682.617	81.2177	682.617	76.2883	682.617	80.8472
707.52	90.8167	707.52	91.4105	707.52	91.1515	707.52	91.7592	707.52	91.4729	707.52	91.3007	707.52	91.2555	707.52	90.8522	707.52	90.927	707.52	90.9276	707.52	90.3926	707.52	90.5457	707.52	89.3748	707.52	89.0053	707.52	87.6403	707.52	86.7273	707.52	85.2576	707.52	85.024	707.52	83.2913	707.52	84.1232	707.52	82.5526	707.52	82.528	707.52	81.4382	707.52	80.8123	707.52	76.7246	707.52	82.6034	707.52	66.1992	707.52	83.0071	707.52	76.8456	707.52	79.4974	707.52	71.5668	707.52	74.5881	707.52	71.0257	707.52	74.4221	707.52	75.5652	707.52	75.4562
732.422	90.746	732.422	91.5031	732.422	90.6129	732.422	91.912	732.422	90.9805	732.422	91.9014	732.422	91.2176	732.422	92.2826	732.422	91.4115	732.422	92.3752	732.422	91.5831	732.422	91.3191	732.422	91.1937	732.422	89.2527	732.422	89.6179	732.422	86.9274	732.422	86.3863	732.422	85.1944	732.422	81.7468	732.422	84.3335	732.422	80.2929	732.422	83.4682	732.422	82.3526	732.422	81.6708	732.422	84.2981	732.422	81.5538	732.422	85.0084	732.422	82.2168	732.422	82.6335	732.422	80.4278	732.422	76.1629	732.422	77.2248	732.422	74.9177	732.422	72.7471	732.422	75.743	732.422	73.185
757.324	90.8322	757.324	90.6659	757.324	92.0498	757.324	91.1911	757.324	93.0286	757.324	91.7447	757.324	92.8965	757.324	92.5807	757.324	92.189	757.324	93.1277	757.324	91.5912	757.324	92.2914	757.324	91.0815	757.324	89.9702	757.324	90.2046	757.324	86.9883	757.324	88.1174	757.324	84.5672	757.324	83.5633	757.324	83.0228	757.324	76.7476	757.324	82.5136	757.324	80.3836	757.324	82.4762	757.324	82.6856	757.324	81.312	757.324	84.9235	757.324	79.1228	757.324	85.8212	757.324	74.7506	757.324	83.6646	757.324	72.7171	757.324	80.493	757.324	79.2094	757.324	79.7976	757.324	81.2474
785.156	92.8973	785.156	93.3842	785.156	92.9825	785.156	93.3351	785.156	93.0065	785.156	92.0627	785.156	92.3699	785.156	91.3327	785.156	91.697	785.156	91.9191	785.156	91.4145	785.156	91.8763	785.156	90.9693	785.156	89.991	785.156	89.7349	785.156	86.2121	785.156	87.6774	785.156	82.8442	785.156	85.3453	785.156	83.47	785.156	82.5797	785.156	84.2753	785.156	78.926	785.156	83.7323	785.156	72.8908	785.156	84.6865	785.156	77.095	785.156	84.5085	785.156	79.4212	785.156	80.0571	785.156	57.8091	785.156	74.6627	785.156	82.416	785.156	69.3212	785.156	84.4329	785.156	79.618
811.523	92.1135	811.523	92.7702	811.523	91.9598	811.523	92.9392	811.523	92.5754	811.523	92.0617	811.523	93.5164	811.523	91.7003	811.523	93.803	811.523	92.0933	811.523	93.502	811.523	91.5372	811.523	92.5577	811.523	89.5486	811.523	90.8369	811.523	86.8953	811.523	88.902	811.523	84.512	811.523	87.5792	811.523	83.2909	811.523	85.648	811.523	84.449	811.523	80.3661	811.523	84.643	811.523	77.7223	811.523	82.2796	811.523	80.0316	811.523	81.8784	811.523	79.5436	811.523	77.4765	811.523	78.904	811.523	80.5999	811.523	74.0793	811.523	78.3496	811.523	79.8871	811.523	81.3051
840.82	88.2723	840.82	91.4067	840.82	90.0843	840.82	94.0237	840.82	92.43	840.82	93.4918	840.82	92.3323	840.82	91.7837	840.82	91.747	840.82	91.0362	840.82	92.3455	840.82	90.7964	840.82	92.204	840.82	89.9902	840.82	90.5355	840.82	88.3735	840.82	89.0146	840.82	86.2518	840.82	88.7269	840.82	81.8722	840.82	87.5321	840.82	78.4314	840.82	84.6617	840.82	85.3654	840.82	84.6971	840.82	85.2198	840.82	86.3714	840.82	76.7989	840.82	84.5213	840.82	71.1018	840.82	80.2557	840.82	79.4776	840.82	79.4439	840.82	74.0449	840.82	74.935	840.82	70.4163
870.117	92.5638	870.117	91.6753	870.117	93.4118	870.117	91.624	870.117	93.0227	870.117	91.3945	870.117	91.8409	870.117	92.3272	870.117	91.9497	870.117	93.5095	870.117	92.6606	870.117	92.9774	870.117	91.5489	870.117	90.7995	870.117	87.6994	870.117	88.2538	870.117	84.3558	870.117	87.1371	870.117	88.2804	870.117	86.9012	870.117	89.0152	870.117	83.7031	870.117	86.6294	870.117	69.8646	870.117	84.1557	870.117	82.3439	870.117	78.6476	870.117	82.9687	870.117	77.1235	870.117	79.5161	870.117	73.4125	870.117	73.8958	870.117	81.4594	870.117	77.0085	870.117	82.3342	870.117	77.7518
900.879	91.8561	900.879	91.1745	900.879	92.2076	900.879	92.1978	900.879	91.8343	900.879	91.8161	900.879	91.6481	900.879	91.1786	900.879	91.9089	900.879	92.4225	900.879	92.5157	900.879	91.9932	900.879	92.8588	900.879	89.1719	900.879	91.125	900.879	84.795	900.879	85.5606	900.879	80.8582	900.879	74.8145	900.879	82.7843	900.879	81.8688	900.879	85.6283	900.879	83.0451	900.879	84.7807	900.879	82.3791	900.879	78.6989	900.879	81.6525	900.879	79.9529	900.879	79.6299	900.879	74.424	900.879	76.0992	900.879	80.5289	900.879	80.8699	900.879	79.5369	900.879	82.9361	900.879	77.6717
933.105	91.682	933.105	92.8283	933.105	89.9733	933.105	92.1732	933.105	90.2442	933.105	90.4012	933.105	91.5496	933.105	90.8423	933.105	91.9026	933.105	92.6584	933.105	91.5257	933.105	92.4938	933.105	90.9721	933.105	90.4891	933.105	90.5244	933.105	87.9496	933.105	90.0696	933.105	85.5979	933.105	88.4751	933.105	84.179	933.105	84.7217	933.105	81.2972	933.105	84.2348	933.105	79.0917	933.105	85.1679	933.105	81.6124	933.105	84.8465	933.105	75.7092	933.105	85.5407	933.105	77.8319	933.105	80.3056	933.105	80.7068	933.105	74.5085	933.105	78.778	933.105	76.7142	933.105	75.3896
965.332	93.0242	965.332	90.1342	965.332	93.7327	965.332	91.1925	965.332	91.4273	965.332	91.8477	965.332	89.5499	965.332	90.5807	965.332	90.7363	965.332	91.2871	965.332	92.0771	965.332	91.3348	965.332	91.6401	965.332	88.7857	965.332	89.8067	965.332	84.2943	965.332	88.1153	965.332	80.8745	965.332	86.4361	965.332	82.9751	965.332	82.304	965.332	84.8713	965.332	81.2765	965.332	83.365	965.332	83.6495	965.332	79.125	965.332	78.6287	965.332	72.7156	965.332	75.4601	965.332	75.6838	965.332	74.5534	965.332	77.8091	965.332	72.3738	965.332	69.7261	965.332	77.693	965.332	75.7698
1,000.49	91.1569	1,000.49	91.7823	1,000.49	90.1814	1,000.49	91.9885	1,000.49	91.8356	1,000.49	91.9656	1,000.49	93.1443	1,000.49	90.9237	1,000.49	92.4184	1,000.49	91.2994	1,000.49	91.4606	1,000.49	90.9462	1,000.49	90.8819	1,000.49	88.1831	1,000.49	89.4625	1,000.49	83.8663	1,000.49	87.0624	1,000.49	76.0907	1,000.49	85.1793	1,000.49	76.3281	1,000.49	83.5412	1,000.49	82.408	1,000.49	82.068	1,000.49	81.156	1,000.49	82.2568	1,000.49	77.4522	1,000.49	82.7564	1,000.49	77.9756	1,000.49	82.6866	1,000.49	76.5304	1,000.49	76.8533	1,000.49	71.9084	1,000.49	65.1166	1,000.49	76.3842	1,000.49	79.1663	1,000.49	82.4202
1,035.64	89.8078	1,035.64	91.5794	1,035.64	88.8633	1,035.64	91.5512	1,035.64	89.6096	1,035.64	91.074	1,035.64	90.0577	1,035.64	90.4982	1,035.64	90.0475	1,035.64	89.8267	1,035.64	90.1304	1,035.64	89.5054	1,035.64	90.4551	1,035.64	89.1329	1,035.64	89.9507	1,035.64	87.6357	1,035.64	87.7748	1,035.64	84.4672	1,035.64	86.404	1,035.64	79.8597	1,035.64	84.2877	1,035.64	78.6554	1,035.64	78.4575	1,035.64	81.6567	1,035.64	82.7724	1,035.64	78.6182	1,035.64	81.7325	1,035.64	70.8798	1,035.64	80.5342	1,035.64	70.6373	1,035.64	77.6657	1,035.64	79.7023	1,035.64	77.9041	1,035.64	76.6886	1,035.64	76.0915	1,035.64	75.9296
1,072.27	92.3471	1,072.27	89.9681	1,072.27	89.9168	1,072.27	89.7323	1,072.27	86.5022	1,072.27	91.8839	1,072.27	89.1574	1,072.27	90.5138	1,072.27	91.1016	1,072.27	90.1263	1,072.27	90.8218	1,072.27	90.5074	1,072.27	90.4624	1,072.27	89.1567	1,072.27	89.5314	1,072.27	87.6763	1,072.27	86.4316	1,072.27	86.513	1,072.27	84.8819	1,072.27	84.5732	1,072.27	86.0938	1,072.27	78.8837	1,072.27	84.6227	1,072.27	79.3201	1,072.27	83.5723	1,072.27	80.9783	1,072.27	83.0693	1,072.27	69.9369	1,072.27	78.6478	1,072.27	73.7276	1,072.27	68.1	1,072.27	80.198	1,072.27	70.3556	1,072.27	75.2359	1,072.27	75.615	1,072.27	72.774
1,108.89	91.7317	1,108.89	91.2387	1,108.89	90.2664	1,108.89	90.3534	1,108.89	90.5841	1,108.89	91.2786	1,108.89	90.6536	1,108.89	89.6718	1,108.89	88.8224	1,108.89	89.3654	1,108.89	89.1833	1,108.89	90.9254	1,108.89	90.8394	1,108.89	89.5647	1,108.89	90.2569	1,108.89	85.0916	1,108.89	86.5313	1,108.89	81.6591	1,108.89	80.724	1,108.89	83.8768	1,108.89	82.4175	1,108.89	84.7239	1,108.89	85.5542	1,108.89	77.2602	1,108.89	85.696	1,108.89	78.308	1,108.89	83.2907	1,108.89	74.5461	1,108.89	78.745	1,108.89	72.3487	1,108.89	78.3195	1,108.89	79.6972	1,108.89	79.8274	1,108.89	77.3696	1,108.89	77.166	1,108.89	80.4559
1,148.44	89.4812	1,148.44	90.53	1,148.44	90.9139	1,148.44	90.676	1,148.44	89.1799	1,148.44	90.6928	1,148.44	89.0311	1,148.44	89.9277	1,148.44	91.7523	1,148.44	89.1646	1,148.44	91.6001	1,148.44	90.3095	1,148.44	90.1721	1,148.44	88.6422	1,148.44	89.4671	1,148.44	84.6451	1,148.44	87.3004	1,148.44	79.8843	1,148.44	81.1419	1,148.44	74.5475	1,148.44	65.982	1,148.44	80.8462	1,148.44	73.3601	1,148.44	81.8147	1,148.44	75.9472	1,148.44	67.6491	1,148.44	77.8508	1,148.44	74.8948	1,148.44	76.2435	1,148.44	76.7236	1,148.44	62.5933	1,148.44	76.2946	1,148.44	77.4431	1,148.44	76.3685	1,148.44	72.9543	1,148.44	78.561
1,189.45	90.9651	1,189.45	91.6206	1,189.45	89.6281	1,189.45	89.9408	1,189.45	91.2689	1,189.45	89.9896	1,189.45	91.3556	1,189.45	89.4591	1,189.45	89.8537	1,189.45	89.9358	1,189.45	89.0414	1,189.45	91.1927	1,189.45	90.1995	1,189.45	88.8083	1,189.45	91.2036	1,189.45	84.7581	1,189.45	89.4587	1,189.45	83.19	1,189.45	85.3549	1,189.45	81.4805	1,189.45	79.545	1,189.45	76.0553	1,189.45	79.7468	1,189.45	79.9053	1,189.45	84.0407	1,189.45	75.7183	1,189.45	82.7158	1,189.45	66.0291	1,189.45	73.4146	1,189.45	72.5705	1,189.45	82.1018	1,189.45	77.677	1,189.45	80.5752	1,189.45	78.5493	1,189.45	76.5562	1,189.45	73.0488
1,230.47	90.5929	1,230.47	92.6289	1,230.47	88.9505	1,230.47	89.9211	1,230.47	88.8195	1,230.47	90.0988	1,230.47	88.9632	1,230.47	90.7799	1,230.47	90.6722	1,230.47	88.2333	1,230.47	90.7169	1,230.47	88.9638	1,230.47	89.9421	1,230.47	87.9108	1,230.47	89.0559	1,230.47	83.2378	1,230.47	86.7014	1,230.47	76.1759	1,230.47	84.1711	1,230.47	81.5684	1,230.47	82.0147	1,230.47	82.0954	1,230.47	72.906	1,230.47	70.5008	1,230.47	73.617	1,230.47	73.0349	1,230.47	68.3183	1,230.47	71.079	1,230.47	77.3169	1,230.47	76.9617	1,230.47	50.4514	1,230.47	69.9904	1,230.47	81.3216	1,230.47	77.2885	1,230.47	75.4541	1,230.47	78.8033
1,274.41	91.1982	1,274.41	91.4825	1,274.41	87.3096	1,274.41	90.2578	1,274.41	89.7147	1,274.41	90.1471	1,274.41	90.2218	1,274.41	90.1019	1,274.41	87.0224	1,274.41	89.066	1,274.41	87.3474	1,274.41	88.8111	1,274.41	90.0183	1,274.41	87.6563	1,274.41	90.6482	1,274.41	84.9064	1,274.41	88.1582	1,274.41	81.5673	1,274.41	82.2569	1,274.41	79.7142	1,274.41	81.3157	1,274.41	78.0104	1,274.41	80.4624	1,274.41	76.9969	1,274.41	80.8455	1,274.41	71.8995	1,274.41	78.2314	1,274.41	68.9863	1,274.41	75.2569	1,274.41	77.0699	1,274.41	79.7775	1,274.41	77.4513	1,274.41	74.9442	1,274.41	79.0247	1,274.41	75.428	1,274.41	76.5248
1,319.82	90.9682	1,319.82	90.7211	1,319.82	89.3974	1,319.82	90.2399	1,319.82	86.3693	1,319.82	89.6879	1,319.82	89.4372	1,319.82	89.0039	1,319.82	89.905	1,319.82	88.1923	1,319.82	88.5543	1,319.82	88.1697	1,319.82	88.778	1,319.82	86.0956	1,319.82	88.4965	1,319.82	81.0527	1,319.82	86.008	1,319.82	74.5879	1,319.82	82.2794	1,319.82	74.3191	1,319.82	79.3252	1,319.82	79.8982	1,319.82	72.8519	1,319.82	78.1239	1,319.82	76.716	1,319.82	76.9402	1,319.82	73.4896	1,319.82	67.2019	1,319.82	77.8506	1,319.82	74.9673	1,319.82	66.1782	1,319.82	79.6719	1,319.82	79.2045	1,319.82	77.3829	1,319.82	68.976	1,319.82	78.0554
1,366.7	89.2688	1,366.7	89.6001	1,366.7	88.159	1,366.7	90.5244	1,366.7	87.4085	1,366.7	89.7533	1,366.7	88.9231	1,366.7	89.6672	1,366.7	88.2094	1,366.7	85.951	1,366.7	88.2401	1,366.7	87.7766	1,366.7	88.7518	1,366.7	89.3371	1,366.7	88.516	1,366.7	88.4678	1,366.7	86.1913	1,366.7	86.3258	1,366.7	82.9887	1,366.7	80.8797	1,366.7	75.406	1,366.7	72.2985	1,366.7	74.0732	1,366.7	79.1684	1,366.7	77.3252	1,366.7	71.5183	1,366.7	71.7343	1,366.7	75.7235	1,366.7	76.2996	1,366.7	69.7293	1,366.7	81.8596	1,366.7	72.437	1,366.7	54.8342	1,366.7	77.7793	1,366.7	75.254	1,366.7	78.8354
1,413.57	89.1715	1,413.57	87.0002	1,413.57	89.262	1,413.57	90.0515	1,413.57	86.419	1,413.57	90.4484	1,413.57	88.6201	1,413.57	89.5578	1,413.57	89.5472	1,413.57	86.0612	1,413.57	90.3725	1,413.57	89.4466	1,413.57	88.5128	1,413.57	88.7165	1,413.57	86.86	1,413.57	83.6593	1,413.57	85.2089	1,413.57	81.71	1,413.57	82.9054	1,413.57	83.2055	1,413.57	83.379	1,413.57	80.378	1,413.57	75.4006	1,413.57	72.6939	1,413.57	73.6042	1,413.57	75.0644	1,413.57	77.5892	1,413.57	73.565	1,413.57	77.8009	1,413.57	53.4102	1,413.57	72.0263	1,413.57	75.2395	1,413.57	76.6882	1,413.57	73.8747	1,413.57	74.5014	1,413.57	64.4858
1,463.38	87.4409	1,463.38	90.2764	1,463.38	88.5574	1,463.38	90.7884	1,463.38	86.8186	1,463.38	90.0029	1,463.38	83.7276	1,463.38	90.4156	1,463.38	90.41	1,463.38	89.5418	1,463.38	89.9358	1,463.38	89.1879	1,463.38	86.5998	1,463.38	89.6276	1,463.38	89.3135	1,463.38	84.4622	1,463.38	87.4054	1,463.38	66.5668	1,463.38	79.5529	1,463.38	81.9199	1,463.38	80.9023	1,463.38	85.9832	1,463.38	84.5363	1,463.38	79.5671	1,463.38	75.6368	1,463.38	63.1504	1,463.38	71.2928	1,463.38	76.6984	1,463.38	60.8061	1,463.38	77.2972	1,463.38	81.914	1,463.38	76.5311	1,463.38	74.4076	1,463.38	77.7836	1,463.38	72.2765	1,463.38	76.0629
1,516.11	88.9893	1,516.11	89.4206	1,516.11	88.0072	1,516.11	90.9613	1,516.11	89.5009	1,516.11	86.8075	1,516.11	86.422	1,516.11	89.2695	1,516.11	86.7287	1,516.11	89.6807	1,516.11	89.8749	1,516.11	89.7822	1,516.11	88.8188	1,516.11	86.8352	1,516.11	87.6799	1,516.11	81.6712	1,516.11	86.8111	1,516.11	78.9028	1,516.11	82.2078	1,516.11	66.4538	1,516.11	78.6822	1,516.11	76.2926	1,516.11	81.9175	1,516.11	80.0729	1,516.11	82.9264	1,516.11	81.3305	1,516.11	78.0953	1,516.11	80.1072	1,516.11	79.6484	1,516.11	79.4991	1,516.11	77.8635	1,516.11	77.5137	1,516.11	74.0679	1,516.11	74.628	1,516.11	74.2515	1,516.11	75.7326
1,568.85	89.0964	1,568.85	89.8827	1,568.85	86.5237	1,568.85	88.7562	1,568.85	89.2083	1,568.85	87.4964	1,568.85	88.4001	1,568.85	89.9321	1,568.85	86.6315	1,568.85	88.3866	1,568.85	83.1167	1,568.85	85.0913	1,568.85	85.7573	1,568.85	83.6757	1,568.85	87.3035	1,568.85	84.5551	1,568.85	85.2638	1,568.85	81.0562	1,568.85	79.9949	1,568.85	77.9881	1,568.85	79.3825	1,568.85	71.6862	1,568.85	80.3156	1,568.85	75.2838	1,568.85	78.7181	1,568.85	79.354	1,568.85	80.4966	1,568.85	78.7991	1,568.85	76.6383	1,568.85	82.3897	1,568.85	75.9069	1,568.85	76.1147	1,568.85	76.6617	1,568.85	77.9722	1,568.85	75.5836	1,568.85	69.8273
1,624.51	87.9889	1,624.51	88.524	1,624.51	87.289	1,624.51	89.463	1,624.51	88.7407	1,624.51	89.1697	1,624.51	89.8294	1,624.51	92.0801	1,624.51	86.3587	1,624.51	90.9232	1,624.51	88.7446	1,624.51	85.5654	1,624.51	87.5353	1,624.51	86.1917	1,624.51	86.8779	1,624.51	81.5536	1,624.51	87.0569	1,624.51	81.5615	1,624.51	81.3694	1,624.51	81.0596	1,624.51	79.1431	1,624.51	79.2393	1,624.51	76.5711	1,624.51	79.0242	1,624.51	75.5599	1,624.51	82.8801	1,624.51	74.6789	1,624.51	82.095	1,624.51	81.99	1,624.51	73.9164	1,624.51	78.7887	1,624.51	71.7758	1,624.51	64.6477	1,624.51	65.5125	1,624.51	78.7385	1,624.51	75.853
1,681.64	88.8336	1,681.64	88.4351	1,681.64	87.2688	1,681.64	88.6284	1,681.64	83.9513	1,681.64	86.9915	1,681.64	86.0877	1,681.64	87.5352	1,681.64	89.9688	1,681.64	87.0664	1,681.64	89.6095	1,681.64	86.0679	1,681.64	85.4538	1,681.64	84.4216	1,681.64	86.0649	1,681.64	83.0544	1,681.64	86.2297	1,681.64	81.2867	1,681.64	80.9835	1,681.64	77.0316	1,681.64	82.3136	1,681.64	76.451	1,681.64	76.8199	1,681.64	71.8045	1,681.64	82.5639	1,681.64	69.5029	1,681.64	78.8703	1,681.64	80.5728	1,681.64	81.8608	1,681.64	81.7896	1,681.64	77.4589	1,681.64	68.3313	1,681.64	76.2051	1,681.64	79.6466	1,681.64	77.3844	1,681.64	78.8132
1,741.7	90.2374	1,741.7	89.4225	1,741.7	90.9657	1,741.7	88.8093	1,741.7	90.3413	1,741.7	87.0987	1,741.7	82.2582	1,741.7	87.6945	1,741.7	84.3123	1,741.7	88.7203	1,741.7	89.3745	1,741.7	88.0207	1,741.7	89.6703	1,741.7	87.7342	1,741.7	87.2623	1,741.7	82.7802	1,741.7	86.3261	1,741.7	76.3474	1,741.7	81.1403	1,741.7	81.7775	1,741.7	76.4974	1,741.7	80.5911	1,741.7	75.7813	1,741.7	77.8183	1,741.7	79.4066	1,741.7	80.701	1,741.7	79.4603	1,741.7	77.4944	1,741.7	76.1593	1,741.7	71.9075	1,741.7	77.1281	1,741.7	78.3715	1,741.7	76.9842	1,741.7	63.9626	1,741.7	64.8123	1,741.7	78.8993
1,803.22	90.984	1,803.22	91.9327	1,803.22	87.7436	1,803.22	88.5404	1,803.22	89.5289	1,803.22	89.8581	1,803.22	80.5699	1,803.22	86.9887	1,803.22	85.5854	1,803.22	88.5311	1,803.22	89.4516	1,803.22	86.0892	1,803.22	88.2344	1,803.22	87.0462	1,803.22	89.1694	1,803.22	84.0151	1,803.22	84.8373	1,803.22	77.4198	1,803.22	78.8915	1,803.22	62.3093	1,803.22	71.548	1,803.22	78.8476	1,803.22	77.4544	1,803.22	62.293	1,803.22	79.2323	1,803.22	61.47	1,803.22	74.4167	1,803.22	79.0155	1,803.22	69.893	1,803.22	72.2245	1,803.22	79.6435	1,803.22	74.7333	1,803.22	70.8265	1,803.22	72.613	1,803.22	80.3628	1,803.22	75.0363
1,866.21	91.3443	1,866.21	89.8062	1,866.21	90.4166	1,866.21	90.5426	1,866.21	89.5689	1,866.21	88.2823	1,866.21	87.0641	1,866.21	86.5344	1,866.21	82.4796	1,866.21	85.5417	1,866.21	87.5999	1,866.21	84.611	1,866.21	86.5343	1,866.21	85.0183	1,866.21	88.1742	1,866.21	83.7387	1,866.21	86.6252	1,866.21	79.6015	1,866.21	81.753	1,866.21	78.3988	1,866.21	76.7373	1,866.21	75.783	1,866.21	67.4182	1,866.21	79.2567	1,866.21	62.9999	1,866.21	71.5266	1,866.21	69.0891	1,866.21	64.0366	1,866.21	72.8365	1,866.21	68.894	1,866.21	65.6976	1,866.21	61.0254	1,866.21	73.2851	1,866.21	75.9144	1,866.21	69.1465	1,866.21	73.1812
1,932.13	89.5468	1,932.13	90.091	1,932.13	90.276	1,932.13	90.3336	1,932.13	88.7258	1,932.13	88.4721	1,932.13	87.6028	1,932.13	85.5221	1,932.13	83.1205	1,932.13	84.8016	1,932.13	84.1455	1,932.13	85.1059	1,932.13	87.4796	1,932.13	85.2139	1,932.13	86.6176	1,932.13	80.0819	1,932.13	86.7435	1,932.13	76.1601	1,932.13	82.7081	1,932.13	75.7531	1,932.13	77.4172	1,932.13	73.1299	1,932.13	70.1539	1,932.13	68.4977	1,932.13	59.7996	1,932.13	75.3681	1,932.13	68.401	1,932.13	71.5585	1,932.13	67.8774	1,932.13	62.7388	1,932.13	73.2307	1,932.13	71.145	1,932.13	70.6243	1,932.13	72.9679	1,932.13	72.2856	1,932.13	70.7661
1,999.51	90.9349	1,999.51	90.7714	1,999.51	90.1041	1,999.51	89.9376	1,999.51	87.8345	1,999.51	88.8355	1,999.51	86.2378	1,999.51	80.2751	1,999.51	82.0945	1,999.51	86.3335	1,999.51	85.1493	1,999.51	83.2961	1,999.51	86.2557	1,999.51	83.3781	1,999.51	86.2308	1,999.51	81.3598	1,999.51	86.064	1,999.51	75.3197	1,999.51	81.0047	1,999.51	75.9373	1,999.51	76.7678	1,999.51	70.2506	1,999.51	70.3778	1,999.51	69.8477	1,999.51	67.5657	1,999.51	58.1604	1,999.51	61.455	1,999.51	62.6681	1,999.51	61.8035	1,999.51	69.5699	1,999.51	67.384	1,999.51	64.1043	1,999.51	66.7665	1,999.51	72.2602	1,999.51	66.8137	1,999.51	70.8337
2,069.82	92.1478	2,069.82	91.9594	2,069.82	91.5368	2,069.82	90.1328	2,069.82	88.82	2,069.82	86.2839	2,069.82	85.8595	2,069.82	85.5168	2,069.82	81.8499	2,069.82	83.271	2,069.82	84.2412	2,069.82	82.8745	2,069.82	87.2515	2,069.82	78.0038	2,069.82	85.8083	2,069.82	73.7619	2,069.82	84.688	2,069.82	66.1813	2,069.82	79.4417	2,069.82	62.219	2,069.82	76.1303	2,069.82	63.4624	2,069.82	75.1203	2,069.82	67.506	2,069.82	68.7698	2,069.82	69.3804	2,069.82	67.5437	2,069.82	66.8461	2,069.82	63.5874	2,069.82	63.2755	2,069.82	65.263	2,069.82	70.1512	2,069.82	69.313	2,069.82	67.6492	2,069.82	70.1936	2,069.82	71.8131
2,143.07	92.1816	2,143.07	92.8526	2,143.07	91.3998	2,143.07	90.6234	2,143.07	90.2511	2,143.07	84.2513	2,143.07	85.2863	2,143.07	85.3557	2,143.07	79.4952	2,143.07	80.8274	2,143.07	83.151	2,143.07	70.6967	2,143.07	86.5821	2,143.07	76.525	2,143.07	86.4309	2,143.07	78.1323	2,143.07	85.2102	2,143.07	78.0849	2,143.07	81.5409	2,143.07	71.8346	2,143.07	76.6326	2,143.07	70.4088	2,143.07	75.7377	2,143.07	68.0554	2,143.07	73.9564	2,143.07	67.1776	2,143.07	67.0765	2,143.07	69.9254	2,143.07	60.6794	2,143.07	62.9282	2,143.07	61.519	2,143.07	69.6993	2,143.07	67.0897	2,143.07	70.7399	2,143.07	70.2656	2,143.07	70.6895
2,219.24	92.2244	2,219.24	92.5213	2,219.24	90.6897	2,219.24	90.3172	2,219.24	89.4889	2,219.24	86.8986	2,219.24	84.4225	2,219.24	83.0483	2,219.24	80.663	2,219.24	77.6813	2,219.24	75.6126	2,219.24	77.3592	2,219.24	85.9156	2,219.24	78.5851	2,219.24	86.2055	2,219.24	80.8768	2,219.24	83.8776	2,219.24	77.7906	2,219.24	79.1579	2,219.24	68.0018	2,219.24	75.3568	2,219.24	70.3078	2,219.24	70.2115	2,219.24	67.9614	2,219.24	72.8263	2,219.24	64.8603	2,219.24	63.7418	2,219.24	55.1382	2,219.24	58.294	2,219.24	67.9092	2,219.24	58.8305	2,219.24	66.2775	2,219.24	68.2123	2,219.24	73.0394	2,219.24	70.4106	2,219.24	70.5591
2,296.88	92.7294	2,296.88	92.8464	2,296.88	91.8757	2,296.88	89.6677	2,296.88	88.6323	2,296.88	85.3067	2,296.88	84.0236	2,296.88	81.6264	2,296.88	79.4241	2,296.88	76.3582	2,296.88	80.1374	2,296.88	80.959	2,296.88	85.3136	2,296.88	85.3271	2,296.88	85.7231	2,296.88	84.0127	2,296.88	84.8298	2,296.88	78.7454	2,296.88	79.0289	2,296.88	74.3926	2,296.88	74.9518	2,296.88	68.8582	2,296.88	75.5625	2,296.88	69.7789	2,296.88	66.7033	2,296.88	57.1299	2,296.88	57.9247	2,296.88	67.4414	2,296.88	54.5327	2,296.88	61.937	2,296.88	64.2441	2,296.88	65.4597	2,296.88	67.8791	2,296.88	69.3524	2,296.88	71.986	2,296.88	71.7707
2,378.91	93.744	2,378.91	93.5649	2,378.91	92.3498	2,378.91	90.1132	2,378.91	88.5431	2,378.91	85.2189	2,378.91	82.7859	2,378.91	74.243	2,378.91	77.539	2,378.91	66.2756	2,378.91	81.7839	2,378.91	79.381	2,378.91	83.3338	2,378.91	82.529	2,378.91	87.1854	2,378.91	81.2145	2,378.91	86.6219	2,378.91	75.4521	2,378.91	83.0264	2,378.91	70.1333	2,378.91	66.6409	2,378.91	70.464	2,378.91	73.0794	2,378.91	71.863	2,378.91	70.9935	2,378.91	61.2533	2,378.91	53.5529	2,378.91	66.6082	2,378.91	57.3758	2,378.91	56.255	2,378.91	41.0359	2,378.91	67.1671	2,378.91	67.2404	2,378.91	71.4795	2,378.91	72.1054	2,378.91	66.7899
2,462.4	92.9285	2,462.4	93.5023	2,462.4	92.4912	2,462.4	90.4466	2,462.4	88.6334	2,462.4	80.5832	2,462.4	82.3234	2,462.4	74.2803	2,462.4	80.5131	2,462.4	65.1052	2,462.4	78.511	2,462.4	83.9129	2,462.4	85.1795	2,462.4	83.7765	2,462.4	89.9186	2,462.4	83.9785	2,462.4	87.169	2,462.4	76.6542	2,462.4	82.0867	2,462.4	69.036	2,462.4	76.4145	2,462.4	77.5193	2,462.4	72.0445	2,462.4	70.9793	2,462.4	61.2078	2,462.4	57.602	2,462.4	59.8927	2,462.4	66.623	2,462.4	60.0365	2,462.4	64.0551	2,462.4	62.3608	2,462.4	45.5805	2,462.4	67.6076	2,462.4	70.2278	2,462.4	65.9075	2,462.4	71.393
2,548.83	93.3543	2,548.83	93.5077	2,548.83	92.2237	2,548.83	90.3306	2,548.83	87.4612	2,548.83	82.8959	2,548.83	78.4423	2,548.83	64.6923	2,548.83	80.2553	2,548.83	79.4895	2,548.83	81.4008	2,548.83	78.9727	2,548.83	86.3668	2,548.83	84.8912	2,548.83	88.6915	2,548.83	84.1295	2,548.83	86.825	2,548.83	80.9302	2,548.83	81.5745	2,548.83	64.8118	2,548.83	70.6265	2,548.83	69.4841	2,548.83	75.1365	2,548.83	71.5247	2,548.83	63.8192	2,548.83	60.8165	2,548.83	59.4852	2,548.83	55.551	2,548.83	57.5368	2,548.83	62.5274	2,548.83	60.7399	2,548.83	58.7194	2,548.83	66.7407	2,548.83	68.6917	2,548.83	70.2849	2,548.83	69.6247
2,639.65	93.6627	2,639.65	93.815	2,639.65	92.5346	2,639.65	89.737	2,639.65	88.7518	2,639.65	84.3859	2,639.65	75.6328	2,639.65	80.5387	2,639.65	78.4007	2,639.65	79.0597	2,639.65	86.384	2,639.65	85.0821	2,639.65	86.0306	2,639.65	85.5849	2,639.65	88.0602	2,639.65	84.4499	2,639.65	85.1169	2,639.65	80.8943	2,639.65	82.7374	2,639.65	77.5052	2,639.65	74.0091	2,639.65	70.6689	2,639.65	61.8542	2,639.65	68.3586	2,639.65	63.6055	2,639.65	58.4248	2,639.65	64.0889	2,639.65	44.6471	2,639.65	59.6595	2,639.65	47.4229	2,639.65	66.4768	2,639.65	64.5394	2,639.65	64.8547	2,639.65	64.1462	2,639.65	69.8932	2,639.65	68.6568
2,731.93	93.6381	2,731.93	92.5121	2,731.93	91.0299	2,731.93	90.8221	2,731.93	89.597	2,731.93	84.4372	2,731.93	75.2863	2,731.93	82.7484	2,731.93	84.6681	2,731.93	80.1435	2,731.93	87.1998	2,731.93	80.676	2,731.93	84.6031	2,731.93	84.1019	2,731.93	85.7319	2,731.93	85.1893	2,731.93	82.4509	2,731.93	74.7684	2,731.93	81.2586	2,731.93	63.0811	2,731.93	73.7231	2,731.93	78.6855	2,731.93	71.2573	2,731.93	67.6299	2,731.93	63.9222	2,731.93	68.7608	2,731.93	62.3478	2,731.93	62.1068	2,731.93	64.1996	2,731.93	63.3834	2,731.93	66.4781	2,731.93	57.2255	2,731.93	62.8746	2,731.93	69.3622	2,731.93	70.5435	2,731.93	64.7578
2,828.61	94.1418	2,828.61	92.6212	2,828.61	91.1633	2,828.61	91.6471	2,828.61	88.1298	2,828.61	84.9211	2,828.61	80.0794	2,828.61	86.8187	2,828.61	87.6255	2,828.61	76.1817	2,828.61	85.7518	2,828.61	85.0323	2,828.61	84.6921	2,828.61	86.7046	2,828.61	86.823	2,828.61	87.5872	2,828.61	85.906	2,828.61	81.1143	2,828.61	78.2881	2,828.61	67.0076	2,828.61	78.9337	2,828.61	72.4648	2,828.61	70.8075	2,828.61	67.5807	2,828.61	63.0992	2,828.61	65.3775	2,828.61	65.8452	2,828.61	62.5778	2,828.61	67.8533	2,828.61	58.923	2,828.61	69.0381	2,828.61	53.4789	2,828.61	61.9116	2,828.61	67.9256	2,828.61	66.985	2,828.61	65.9078
2,928.22	93.9932	2,928.22	92.6807	2,928.22	91.9886	2,928.22	90.9518	2,928.22	88.3505	2,928.22	88.8158	2,928.22	84.5303	2,928.22	84.8044	2,928.22	88.2894	2,928.22	84.8806	2,928.22	85.5143	2,928.22	86.8279	2,928.22	86.3182	2,928.22	85.8629	2,928.22	87.7796	2,928.22	86.0521	2,928.22	85.5598	2,928.22	78.009	2,928.22	79.8628	2,928.22	73.1377	2,928.22	78.1567	2,928.22	72.4568	2,928.22	72.1617	2,928.22	72.4276	2,928.22	63.5323	2,928.22	69.0458	2,928.22	53.9433	2,928.22	60.3441	2,928.22	66.2776	2,928.22	57.0928	2,928.22	68.2928	2,928.22	51.0613	2,928.22	64.0391	2,928.22	63.8624	2,928.22	67.6582	2,928.22	64.5471
3,030.76	93.1338	3,030.76	92.4995	3,030.76	91.1949	3,030.76	90.7113	3,030.76	88.6366	3,030.76	89.7216	3,030.76	87.8296	3,030.76	87.495	3,030.76	87.8816	3,030.76	83.0883	3,030.76	86.2628	3,030.76	84.5614	3,030.76	87.7342	3,030.76	84.7655	3,030.76	87.9536	3,030.76	84.4499	3,030.76	83.4126	3,030.76	77.2884	3,030.76	75.6914	3,030.76	68.4512	3,030.76	76.6685	3,030.76	70.1677	3,030.76	63.0184	3,030.76	73.6082	3,030.76	66.2185	3,030.76	54.8123	3,030.76	68.9791	3,030.76	59.9103	3,030.76	65.372	3,030.76	61.6214	3,030.76	68.1687	3,030.76	58.2266	3,030.76	64.2887	3,030.76	69.0832	3,030.76	67.5793	3,030.76	65.396
3,137.7	93.4665	3,137.7	93.195	3,137.7	91.8738	3,137.7	90.9346	3,137.7	87.3807	3,137.7	89.728	3,137.7	89.2627	3,137.7	89.6867	3,137.7	86.9385	3,137.7	85.6232	3,137.7	89.4349	3,137.7	85.445	3,137.7	85.1078	3,137.7	85.1138	3,137.7	85.6112	3,137.7	88.8316	3,137.7	83.5537	3,137.7	81.5138	3,137.7	81.1921	3,137.7	79.7415	3,137.7	72.7935	3,137.7	77.5799	3,137.7	68.9633	3,137.7	71.7449	3,137.7	65.1635	3,137.7	53.3246	3,137.7	67.7575	3,137.7	59.7329	3,137.7	68.6166	3,137.7	58.7603	3,137.7	65.5643	3,137.7	49.0441	3,137.7	64.6466	3,137.7	62.4211	3,137.7	67.8044	3,137.7	67.0048
3,249.02	93.411	3,249.02	92.6072	3,249.02	91.7838	3,249.02	91.2283	3,249.02	89.1704	3,249.02	90.3548	3,249.02	88.6748	3,249.02	89.5555	3,249.02	88.0218	3,249.02	86.0924	3,249.02	90.0489	3,249.02	86.9363	3,249.02	81.8046	3,249.02	86.9749	3,249.02	85.5688	3,249.02	85.1585	3,249.02	85.7829	3,249.02	75.7551	3,249.02	81.8802	3,249.02	75.7212	3,249.02	73.3728	3,249.02	77.1085	3,249.02	64.6742	3,249.02	67.3347	3,249.02	68.1457	3,249.02	65.7833	3,249.02	63.7466	3,249.02	43.1506	3,249.02	69.9999	3,249.02	56.8223	3,249.02	66.705	3,249.02	57.8734	3,249.02	68.581	3,249.02	60.9802	3,249.02	64.977	3,249.02	65.7603
3,363.28	92.9225	3,363.28	91.9706	3,363.28	90.9762	3,363.28	91.8051	3,363.28	90.6147	3,363.28	90.5042	3,363.28	89.0596	3,363.28	90.5128	3,363.28	89.9374	3,363.28	86.6924	3,363.28	88.624	3,363.28	83.6022	3,363.28	83.799	3,363.28	77.1988	3,363.28	88.2009	3,363.28	84.5841	3,363.28	86.5781	3,363.28	79.0129	3,363.28	82.1608	3,363.28	76.6989	3,363.28	77.0275	3,363.28	77.883	3,363.28	66.1543	3,363.28	62.9007	3,363.28	68.4709	3,363.28	70.6406	3,363.28	66.9046	3,363.28	52.9027	3,363.28	70.7526	3,363.28	57.3024	3,363.28	67.9505	3,363.28	58.198	3,363.28	67.7375	3,363.28	64.6849	3,363.28	68.6907	3,363.28	68.326
3,481.93	92.7733	3,481.93	92.4017	3,481.93	90.8372	3,481.93	91.5226	3,481.93	89.9009	3,481.93	91.4026	3,481.93	90.0506	3,481.93	89.7261	3,481.93	90.2554	3,481.93	87.992	3,481.93	87.4407	3,481.93	85.5984	3,481.93	84.6798	3,481.93	87.0546	3,481.93	87.1711	3,481.93	86.5941	3,481.93	86.3243	3,481.93	81.0355	3,481.93	81.9302	3,481.93	75.6215	3,481.93	74.4634	3,481.93	75.3282	3,481.93	64.7543	3,481.93	54.7285	3,481.93	65.3316	3,481.93	73.1632	3,481.93	70.8698	3,481.93	60.5332	3,481.93	68.6223	3,481.93	55.9352	3,481.93	67.7626	3,481.93	63.1782	3,481.93	68.2397	3,481.93	60.8501	3,481.93	69.0307	3,481.93	66.6945
3,604.98	92.2169	3,604.98	92.381	3,604.98	91.0459	3,604.98	91.7557	3,604.98	89.8561	3,604.98	90.6547	3,604.98	91.0911	3,604.98	91.2712	3,604.98	89.435	3,604.98	85.9492	3,604.98	88.6116	3,604.98	86.0229	3,604.98	83.79	3,604.98	81.5023	3,604.98	85.2232	3,604.98	85.6906	3,604.98	85.7863	3,604.98	74.2524	3,604.98	79.1528	3,604.98	76.9204	3,604.98	75.3514	3,604.98	76.7463	3,604.98	63.0746	3,604.98	64.8245	3,604.98	66.0421	3,604.98	75.5962	3,604.98	70.5686	3,604.98	68.7626	3,604.98	65.1216	3,604.98	51.423	3,604.98	68.2598	3,604.98	62.5698	3,604.98	67.004	3,604.98	64.8236	3,604.98	68.8188	3,604.98	64.6873
3,732.42	90.9927	3,732.42	92.1216	3,732.42	90.6048	3,732.42	90.7529	3,732.42	89.1077	3,732.42	90.9794	3,732.42	91.3591	3,732.42	90.0629	3,732.42	87.7165	3,732.42	87.7854	3,732.42	89.4629	3,732.42	85.7992	3,732.42	82.2752	3,732.42	85.6239	3,732.42	85.0968	3,732.42	86.9544	3,732.42	83.6731	3,732.42	80.2298	3,732.42	70.3869	3,732.42	76.9541	3,732.42	74.5764	3,732.42	78.9455	3,732.42	62.8378	3,732.42	67.0033	3,732.42	62.8723	3,732.42	75.3068	3,732.42	67.9031	3,732.42	72.567	3,732.42	57.2101	3,732.42	59.5378	3,732.42	70.7175	3,732.42	56.5061	3,732.42	69.5684	3,732.42	60.7958	3,732.42	67.7726	3,732.42	66.983
3,864.26	90.8732	3,864.26	92.1759	3,864.26	90.8573	3,864.26	89.3754	3,864.26	87.2643	3,864.26	89.5461	3,864.26	89.6007	3,864.26	91.153	3,864.26	88.6367	3,864.26	88.3347	3,864.26	87.6879	3,864.26	87.2225	3,864.26	84.3312	3,864.26	85.3444	3,864.26	85.3852	3,864.26	85.8973	3,864.26	85.1358	3,864.26	74.0621	3,864.26	79.8154	3,864.26	64.5614	3,864.26	67.614	3,864.26	75.4376	3,864.26	69.3008	3,864.26	68.2382	3,864.26	65.0191	3,864.26	70.9297	3,864.26	67.9199	3,864.26	64.9632	3,864.26	56.0421	3,864.26	62.6985	3,864.26	70.7023	3,864.26	60.5539	3,864.26	67.9192	3,864.26	67.3677	3,864.26	68.7092	3,864.26	60.1275
4,000.49	91.3166	4,000.49	91.0126	4,000.49	90.1026	4,000.49	89.1977	4,000.49	89.1214	4,000.49	88.27	4,000.49	89.1103	4,000.49	90.3246	4,000.49	88.0003	4,000.49	89.1705	4,000.49	88.211	4,000.49	87.1044	4,000.49	86.3211	4,000.49	81.2823	4,000.49	81.4285	4,000.49	84.1591	4,000.49	82.952	4,000.49	84.5374	4,000.49	81.2369	4,000.49	77.7354	4,000.49	65.8468	4,000.49	72.4535	4,000.49	69.2532	4,000.49	71.3071	4,000.49	57.0939	4,000.49	60.7953	4,000.49	55.0947	4,000.49	60.0142	4,000.49	65.5893	4,000.49	63.6733	4,000.49	68.9682	4,000.49	59.3497	4,000.49	66.4122	4,000.49	65.567	4,000.49	67.3249	4,000.49	63.757
4,141.11	91.5849	4,141.11	91.1853	4,141.11	89.1391	4,141.11	88.4082	4,141.11	89.8682	4,141.11	87.0561	4,141.11	89.0587	4,141.11	90.1333	4,141.11	87.3452	4,141.11	89.806	4,141.11	87.8228	4,141.11	86.8352	4,141.11	86.135	4,141.11	85.5895	4,141.11	73.0253	4,141.11	83.5024	4,141.11	79.4075	4,141.11	71.9799	4,141.11	79.0898	4,141.11	78.0773	4,141.11	72.2713	4,141.11	68.6904	4,141.11	63.7668	4,141.11	71.1389	4,141.11	63.9157	4,141.11	56.9343	4,141.11	59.0698	4,141.11	65.3178	4,141.11	65.0301	4,141.11	62.3462	4,141.11	66.222	4,141.11	62.2133	4,141.11	67.5936	4,141.11	63.7215	4,141.11	65.9797	4,141.11	63.3441
4,287.6	91.7862	4,287.6	91.196	4,287.6	89.458	4,287.6	89.6485	4,287.6	90.035	4,287.6	86.5049	4,287.6	88.1946	4,287.6	90.4997	4,287.6	86.2099	4,287.6	88.7152	4,287.6	88.2585	4,287.6	86.5201	4,287.6	87.4098	4,287.6	81.0154	4,287.6	84.609	4,287.6	83.9438	4,287.6	82.0138	4,287.6	79.3864	4,287.6	76.2124	4,287.6	79.0825	4,287.6	66.8886	4,287.6	66.3294	4,287.6	69.753	4,287.6	68.213	4,287.6	48.9584	4,287.6	58.8313	4,287.6	58.6574	4,287.6	70.3303	4,287.6	66.2622	4,287.6	63.4354	4,287.6	67.7747	4,287.6	60.2967	4,287.6	68.0057	4,287.6	56.1369	4,287.6	63.4382	4,287.6	67.4458
4,438.48	91.8271	4,438.48	91.3099	4,438.48	89.7806	4,438.48	89.6967	4,438.48	89.9783	4,438.48	87.8337	4,438.48	87.8207	4,438.48	89.6679	4,438.48	86.0464	4,438.48	87.7858	4,438.48	87.6452	4,438.48	85.5099	4,438.48	89.2694	4,438.48	85.5049	4,438.48	83.6427	4,438.48	79.1771	4,438.48	85.2887	4,438.48	74.3271	4,438.48	77.3655	4,438.48	75.8569	4,438.48	62.878	4,438.48	59.1839	4,438.48	68.5571	4,438.48	71.1796	4,438.48	66.9463	4,438.48	63.7577	4,438.48	66.5072	4,438.48	65.3902	4,438.48	63.3827	4,438.48	53.1966	4,438.48	64.752	4,438.48	61.1173	4,438.48	66.0826	4,438.48	58.5839	4,438.48	63.7647	4,438.48	66.0198
4,595.21	92.5755	4,595.21	91.6952	4,595.21	90.9896	4,595.21	89.8125	4,595.21	89.8645	4,595.21	88.1531	4,595.21	88.0658	4,595.21	88.6366	4,595.21	86.4631	4,595.21	87.8227	4,595.21	86.7752	4,595.21	85.3515	4,595.21	87.3146	4,595.21	84.961	4,595.21	84.7503	4,595.21	80.9359	4,595.21	83.8393	4,595.21	76.8722	4,595.21	77.9385	4,595.21	73.5585	4,595.21	74.6999	4,595.21	71.7701	4,595.21	61.2851	4,595.21	66.1389	4,595.21	66.3096	4,595.21	73.4779	4,595.21	62.5164	4,595.21	56.4693	4,595.21	62.2408	4,595.21	59.7551	4,595.21	63.626	4,595.21	58.4359	4,595.21	66.9108	4,595.21	61.5787	4,595.21	66.4432	4,595.21	67.9813
4,756.35	92.8023	4,756.35	91.9283	4,756.35	91.255	4,756.35	89.5467	4,756.35	90.4038	4,756.35	88.1722	4,756.35	89.5117	4,756.35	87.5948	4,756.35	84.0665	4,756.35	85.9439	4,756.35	86.0963	4,756.35	84.5091	4,756.35	86.645	4,756.35	82.6599	4,756.35	87.367	4,756.35	84.7516	4,756.35	85.5632	4,756.35	71.5807	4,756.35	73.6094	4,756.35	75.6898	4,756.35	69.2492	4,756.35	81.6393	4,756.35	60.624	4,756.35	68.9615	4,756.35	59.1524	4,756.35	68.5611	4,756.35	59.046	4,756.35	64.067	4,756.35	67.42	4,756.35	63.1719	4,756.35	55.5631	4,756.35	56.6592	4,756.35	65.9249	4,756.35	60.5127	4,756.35	65.7979	4,756.35	65.4372
4,924.8	93.4763	4,924.8	93.0397	4,924.8	91.9191	4,924.8	90.3189	4,924.8	90.8806	4,924.8	88.8999	4,924.8	90.2854	4,924.8	86.6472	4,924.8	84.7703	4,924.8	86.5094	4,924.8	85.0504	4,924.8	83.2228	4,924.8	85.6828	4,924.8	84.9947	4,924.8	84.1696	4,924.8	83.0397	4,924.8	85.3383	4,924.8	82.7451	4,924.8	65.5753	4,924.8	73.73	4,924.8	58.6046	4,924.8	79.0958	4,924.8	64.4287	4,924.8	76.8577	4,924.8	60.4816	4,924.8	62.9407	4,924.8	63.2805	4,924.8	52.8969	4,924.8	65.879	4,924.8	63.6759	4,924.8	60.2536	4,924.8	60.2651	4,924.8	64.1612	4,924.8	61.8376	4,924.8	65.2471	4,924.8	61.8159
5,097.66	93.0411	5,097.66	92.9627	5,097.66	92.1052	5,097.66	91.4353	5,097.66	92.0063	5,097.66	89.4442	5,097.66	90.1445	5,097.66	85.8306	5,097.66	86.3849	5,097.66	86.6697	5,097.66	81.0134	5,097.66	79.6479	5,097.66	86.6067	5,097.66	84.5212	5,097.66	79.2801	5,097.66	83.2638	5,097.66	85.2209	5,097.66	81.5658	5,097.66	71.767	5,097.66	73.6492	5,097.66	66.3988	5,097.66	65.4522	5,097.66	65.7971	5,097.66	69.0357	5,097.66	52.3052	5,097.66	69.906	5,097.66	67.2752	5,097.66	67.6378	5,097.66	64.2136	5,097.66	67.6824	5,097.66	49.2094	5,097.66	56.2569	5,097.66	65.9909	5,097.66	60.5399	5,097.66	64.4299	5,097.66	64.1052
5,277.83	92.9128	5,277.83	93.2193	5,277.83	92.065	5,277.83	92.5091	5,277.83	91.9983	5,277.83	89.1763	5,277.83	91.5956	5,277.83	86.3117	5,277.83	87.3105	5,277.83	85.3208	5,277.83	80.6678	5,277.83	81.62	5,277.83	84.57	5,277.83	83.9791	5,277.83	82.6701	5,277.83	80.7268	5,277.83	83.8391	5,277.83	76.1554	5,277.83	68.7085	5,277.83	65.5328	5,277.83	69.447	5,277.83	75.7892	5,277.83	60.18	5,277.83	51.7337	5,277.83	64.9711	5,277.83	71.6646	5,277.83	63.3292	5,277.83	65.5782	5,277.83	61.731	5,277.83	55.3611	5,277.83	61.0975	5,277.83	62.8221	5,277.83	62.4101	5,277.83	53.4403	5,277.83	59.8788	5,277.83	62.9135
5,463.87	92.5847	5,463.87	92.5758	5,463.87	91.5398	5,463.87	92.4119	5,463.87	91.6601	5,463.87	89.5592	5,463.87	92.2821	5,463.87	86.6067	5,463.87	86.9086	5,463.87	86.1348	5,463.87	81.4948	5,463.87	80.4539	5,463.87	84.5065	5,463.87	81.9104	5,463.87	83.548	5,463.87	82.4725	5,463.87	81.5406	5,463.87	78.1922	5,463.87	68.4113	5,463.87	59.5441	5,463.87	64.2332	5,463.87	79.3062	5,463.87	67.1251	5,463.87	76.7989	5,463.87	64.6039	5,463.87	70.1869	5,463.87	61.7055	5,463.87	49.4591	5,463.87	66.2212	5,463.87	58.2359	5,463.87	56.7746	5,463.87	60.2569	5,463.87	62.1879	5,463.87	56.0358	5,463.87	63.3519	5,463.87	61.3571
5,657.23	92.3614	5,657.23	92.1857	5,657.23	91.0397	5,657.23	91.9996	5,657.23	91.218	5,657.23	89.8831	5,657.23	92.2109	5,657.23	87.9876	5,657.23	88.5135	5,657.23	87.0131	5,657.23	81.8506	5,657.23	80.3535	5,657.23	84.6097	5,657.23	80.1657	5,657.23	85.5345	5,657.23	82.0598	5,657.23	81.349	5,657.23	81.8536	5,657.23	68.595	5,657.23	54.983	5,657.23	69.7097	5,657.23	63.4445	5,657.23	67.0781	5,657.23	76.8099	5,657.23	64.6317	5,657.23	70.2367	5,657.23	60.4493	5,657.23	54.314	5,657.23	65.4363	5,657.23	53.4177	5,657.23	57.5501	5,657.23	60.9241	5,657.23	58.0543	5,657.23	57.0028	5,657.23	58.41	5,657.23	57.9968
5,856.45	90.858	5,856.45	91.8448	5,856.45	90.1528	5,856.45	90.7017	5,856.45	91.5199	5,856.45	90.5876	5,856.45	90.7657	5,856.45	87.8584	5,856.45	89.0059	5,856.45	86.1458	5,856.45	82.3273	5,856.45	83.0253	5,856.45	82.972	5,856.45	76.0268	5,856.45	85.076	5,856.45	82.5964	5,856.45	80.4946	5,856.45	74.1259	5,856.45	76.5413	5,856.45	71.424	5,856.45	64.7984	5,856.45	71.5311	5,856.45	68.6482	5,856.45	74.2698	5,856.45	57.8449	5,856.45	72.3444	5,856.45	65.309	5,856.45	60.6095	5,856.45	63.3108	5,856.45	38.2522	5,856.45	51.5235	5,856.45	62.2576	5,856.45	59.078	5,856.45	56.7846	5,856.45	62.7781	5,856.45	56.0006
6,062.99	89.6025	6,062.99	91.2328	6,062.99	89.2335	6,062.99	89.9216	6,062.99	90.3599	6,062.99	90.7114	6,062.99	90.2981	6,062.99	87.6507	6,062.99	88.7905	6,062.99	86.4993	6,062.99	83.9365	6,062.99	84.3525	6,062.99	84.3534	6,062.99	75.3056	6,062.99	81.9345	6,062.99	82.4406	6,062.99	84.4555	6,062.99	76.6371	6,062.99	77.701	6,062.99	66.6987	6,062.99	59.0614	6,062.99	74.0507	6,062.99	67.8803	6,062.99	53.3548	6,062.99	62.5482	6,062.99	64.2837	6,062.99	47.871	6,062.99	55.9199	6,062.99	58.8456	6,062.99	56.6132	6,062.99	57.7143	6,062.99	49.4048	6,062.99	54.457	6,062.99	60.6476	6,062.99	61.5398	6,062.99	48.0783
6,276.86	89.2597	6,276.86	91.1911	6,276.86	89.1135	6,276.86	88.8038	6,276.86	88.8176	6,276.86	90.0152	6,276.86	89.985	6,276.86	87.637	6,276.86	88.2765	6,276.86	86.9564	6,276.86	85.0577	6,276.86	83.1624	6,276.86	80.9321	6,276.86	78.8426	6,276.86	83.7078	6,276.86	79.4559	6,276.86	85.1014	6,276.86	80.6801	6,276.86	55.0885	6,276.86	69.2053	6,276.86	63.4656	6,276.86	73.9192	6,276.86	48.6991	6,276.86	73.674	6,276.86	55.5791	6,276.86	70.1834	6,276.86	52.2099	6,276.86	66.4024	6,276.86	59.0896	6,276.86	41.3913	6,276.86	50.4951	6,276.86	52.829	6,276.86	52.4253	6,276.86	54.017	6,276.86	58.1543	6,276.86	46.1403
6,498.05	89.3448	6,498.05	90.5188	6,498.05	89.2499	6,498.05	88.7181	6,498.05	88.8556	6,498.05	89.7317	6,498.05	88.7035	6,498.05	86.0936	6,498.05	89.7615	6,498.05	87.9544	6,498.05	84.3401	6,498.05	83.1318	6,498.05	84.1917	6,498.05	80.6097	6,498.05	81.9375	6,498.05	80.8887	6,498.05	77.4889	6,498.05	81.1199	6,498.05	70.8297	6,498.05	67.661	6,498.05	59.9811	6,498.05	71.2834	6,498.05	59.3506	6,498.05	77.0252	6,498.05	56.6876	6,498.05	65.42	6,498.05	50.027	6,498.05	63.561	6,498.05	52.2593	6,498.05	59.5242	6,498.05	60.6216	6,498.05	44.1758	6,498.05	47.397	6,498.05	37.6104	6,498.05	60.5046	6,498.05	53.9622
6,726.56	90.1081	6,726.56	90.7596	6,726.56	89.6024	6,726.56	88.8746	6,726.56	88.7565	6,726.56	89.0945	6,726.56	87.5981	6,726.56	86.0414	6,726.56	89.1009	6,726.56	87.2254	6,726.56	84.2587	6,726.56	85.085	6,726.56	82.2451	6,726.56	82.6543	6,726.56	82.6668	6,726.56	82.4026	6,726.56	76.2713	6,726.56	79.3593	6,726.56	66.5649	6,726.56	63.6999	6,726.56	58.3646	6,726.56	65.1509	6,726.56	63.1974	6,726.56	74.6062	6,726.56	68.0577	6,726.56	63.1541	6,726.56	60.3116	6,726.56	59.5073	6,726.56	59.2392	6,726.56	61.177	6,726.56	63.093	6,726.56	47.176	6,726.56	55.8438	6,726.56	50.9015	6,726.56	57.1774	6,726.56	33.5329
6,963.87	90.9956	6,963.87	91.1414	6,963.87	90.0862	6,963.87	89.8546	6,963.87	89.5223	6,963.87	88.2531	6,963.87	87.1598	6,963.87	87.2325	6,963.87	88.5146	6,963.87	87.2406	6,963.87	84.6831	6,963.87	85.006	6,963.87	81.9337	6,963.87	81.8218	6,963.87	83.0286	6,963.87	82.9159	6,963.87	76.9073	6,963.87	78.3402	6,963.87	70.4772	6,963.87	72.0119	6,963.87	61.1023	6,963.87	76.0144	6,963.87	60.3719	6,963.87	67.3103	6,963.87	62.8072	6,963.87	67.3956	6,963.87	43.4521	6,963.87	42.6252	6,963.87	55.3305	6,963.87	49.1917	6,963.87	53.0719	6,963.87	55.3425	6,963.87	48.8837	6,963.87	60.7632	6,963.87	60.5959	6,963.87	47.0755
7,209.96	90.7816	7,209.96	90.9524	7,209.96	90.1805	7,209.96	90.8581	7,209.96	90.0464	7,209.96	88.0202	7,209.96	87.1034	7,209.96	88.2811	7,209.96	89.0819	7,209.96	86.4834	7,209.96	83.904	7,209.96	85.0905	7,209.96	80.0937	7,209.96	82.8473	7,209.96	80.499	7,209.96	81.599	7,209.96	80.265	7,209.96	78.6985	7,209.96	70.5036	7,209.96	72.0733	7,209.96	46.1854	7,209.96	74.9152	7,209.96	46.0311	7,209.96	71.1519	7,209.96	56.654	7,209.96	57.287	7,209.96	57.4168	7,209.96	58.4206	7,209.96	40.6177	7,209.96	57.0622	7,209.96	48.1824	7,209.96	60.0989	7,209.96	54.4196	7,209.96	61.0592	7,209.96	57.902	7,209.96	51.0299
7,464.84	90.8712	7,464.84	91.2567	7,464.84	91.0378	7,464.84	91.069	7,464.84	89.7614	7,464.84	88.4815	7,464.84	87.9719	7,464.84	87.7588	7,464.84	88.6321	7,464.84	87.1974	7,464.84	83.2334	7,464.84	83.3781	7,464.84	79.9702	7,464.84	81.69	7,464.84	83.2975	7,464.84	79.7541	7,464.84	84.2512	7,464.84	78.8334	7,464.84	75.9674	7,464.84	71.2388	7,464.84	62.7125	7,464.84	73.3156	7,464.84	43.2272	7,464.84	69.0658	7,464.84	45.9183	7,464.84	67.2073	7,464.84	48.08	7,464.84	55.5483	7,464.84	54.1312	7,464.84	45.0705	7,464.84	57.445	7,464.84	53.7809	7,464.84	52.8112	7,464.84	60.0018	7,464.84	51.657	7,464.84	54.984
7,727.05	90.428	7,727.05	91.7503	7,727.05	90.9261	7,727.05	89.9449	7,727.05	90.2226	7,727.05	88.5863	7,727.05	88.0306	7,727.05	87.436	7,727.05	87.46	7,727.05	86.3255	7,727.05	82.94	7,727.05	84.339	7,727.05	79.0934	7,727.05	81.0712	7,727.05	82.2864	7,727.05	78.8572	7,727.05	80.7389	7,727.05	77.861	7,727.05	71.6139	7,727.05	58.3456	7,727.05	49.1236	7,727.05	73.1897	7,727.05	60.3596	7,727.05	72.2042	7,727.05	58.7021	7,727.05	60.8556	7,727.05	55.9905	7,727.05	55.8908	7,727.05	57.8762	7,727.05	49.9379	7,727.05	57.5349	7,727.05	57.3891	7,727.05	43.1396	7,727.05	60.2526	7,727.05	55.8725	7,727.05	47.734
7,999.51	91.0979	7,999.51	90.6241	7,999.51	89.7961	7,999.51	89.997	7,999.51	90.1956	7,999.51	88.4429	7,999.51	88.4547	7,999.51	87.707	7,999.51	87.0537	7,999.51	86.4117	7,999.51	83.8132	7,999.51	83.6382	7,999.51	81.7608	7,999.51	80.3011	7,999.51	77.36	7,999.51	76.3633	7,999.51	79.2652	7,999.51	78.012	7,999.51	59.6313	7,999.51	69.7545	7,999.51	51.9615	7,999.51	74.6059	7,999.51	58.9366	7,999.51	57.4387	7,999.51	46.8007	7,999.51	58.0847	7,999.51	48.7833	7,999.51	60.3175	7,999.51	59.9596	7,999.51	59.52	7,999.51	56.8264	7,999.51	54.0954	7,999.51	42.5532	7,999.51	63.1644	7,999.51	59.6177	7,999.51	56.5516
8,282.23	90.5929	8,282.23	89.8066	8,282.23	89.6486	8,282.23	89.4948	8,282.23	90.0809	8,282.23	88.44	8,282.23	87.9446	8,282.23	87.935	8,282.23	86.905	8,282.23	86.1016	8,282.23	83.5979	8,282.23	82.285	8,282.23	82.2491	8,282.23	78.2732	8,282.23	79.572	8,282.23	77.4031	8,282.23	76.9406	8,282.23	76.0612	8,282.23	70.9987	8,282.23	70.0252	8,282.23	63.9279	8,282.23	74.3454	8,282.23	51.8966	8,282.23	67.432	8,282.23	56.1462	8,282.23	68.1434	8,282.23	60.6585	8,282.23	66.9275	8,282.23	60.6462	8,282.23	61.6122	8,282.23	61.7274	8,282.23	60.8669	8,282.23	42.4589	8,282.23	61.9182	8,282.23	60.2526	8,282.23	54.6533
8,573.73	90.5534	8,573.73	90.2244	8,573.73	89.1911	8,573.73	89.6344	8,573.73	89.6047	8,573.73	88.5868	8,573.73	88.128	8,573.73	88.171	8,573.73	87.3308	8,573.73	84.8647	8,573.73	84.0247	8,573.73	81.7916	8,573.73	82.0808	8,573.73	70.8465	8,573.73	80.9526	8,573.73	78.4623	8,573.73	77.7967	8,573.73	76.5545	8,573.73	69.9079	8,573.73	71.7726	8,573.73	54.7411	8,573.73	68.74	8,573.73	46.6702	8,573.73	67.2722	8,573.73	57.7643	8,573.73	68.874	8,573.73	61.6678	8,573.73	51.1848	8,573.73	57.5314	8,573.73	59.1551	8,573.73	59.2942	8,573.73	55.3042	8,573.73	46.3963	8,573.73	52.4154	8,573.73	56.8283	8,573.73	56.0114
8,876.95	90.4729	8,876.95	89.9382	8,876.95	89.1002	8,876.95	89.8232	8,876.95	89.8748	8,876.95	88.9039	8,876.95	88.1789	8,876.95	87.3051	8,876.95	87.8721	8,876.95	85.6212	8,876.95	86.3069	8,876.95	81.1167	8,876.95	76.3241	8,876.95	70.0671	8,876.95	79.584	8,876.95	76.3617	8,876.95	71.3531	8,876.95	66.2664	8,876.95	70.9963	8,876.95	69.2627	8,876.95	54.9482	8,876.95	79.489	8,876.95	59.6954	8,876.95	57.4293	8,876.95	56.5902	8,876.95	63.6149	8,876.95	61.2956	8,876.95	58.2994	8,876.95	54.8552	8,876.95	56.0451	8,876.95	49.0962	8,876.95	53.8461	8,876.95	39.4557	8,876.95	42.653	8,876.95	56.8623	8,876.95	52.6223
9,188.96	90.8187	9,188.96	89.7532	9,188.96	88.7957	9,188.96	89.8236	9,188.96	89.5587	9,188.96	89.13	9,188.96	88.2757	9,188.96	87.0712	9,188.96	87.3088	9,188.96	86.0723	9,188.96	86.9995	9,188.96	81.2783	9,188.96	71.0156	9,188.96	74.7113	9,188.96	77.8338	9,188.96	76.3583	9,188.96	74.2279	9,188.96	70.5174	9,188.96	72.9724	9,188.96	62.315	9,188.96	56.8243	9,188.96	74.4769	9,188.96	56.0167	9,188.96	67.445	9,188.96	50.4776	9,188.96	66.1948	9,188.96	57.9581	9,188.96	60.0508	9,188.96	49.6167	9,188.96	45.4462	9,188.96	46.7635	9,188.96	39.6533	9,188.96	40.4496	9,188.96	49.3651	9,188.96	56.3957	9,188.96	51.2677
9,514.16	91.5394	9,514.16	89.8537	9,514.16	89.8868	9,514.16	90.4523	9,514.16	89.7022	9,514.16	90.1574	9,514.16	88.1065	9,514.16	87.3454	9,514.16	86.9947	9,514.16	85.6785	9,514.16	84.8241	9,514.16	82.7496	9,514.16	78.7592	9,514.16	77.0554	9,514.16	78.5693	9,514.16	76.638	9,514.16	74.5682	9,514.16	71.1485	9,514.16	70.521	9,514.16	75.7823	9,514.16	59.9218	9,514.16	74.8475	9,514.16	58.379	9,514.16	68.3341	9,514.16	54.7588	9,514.16	68.9249	9,514.16	56.2913	9,514.16	62.6917	9,514.16	55.2136	9,514.16	54.6772	9,514.16	41.7367	9,514.16	42.2483	9,514.16	39.9875	9,514.16	53.7166	9,514.16	46.5279	9,514.16	49.9111
9,849.61	91.353	9,849.61	90.6976	9,849.61	90.4377	9,849.61	90.5076	9,849.61	90.4927	9,849.61	90.5464	9,849.61	87.8778	9,849.61	86.6801	9,849.61	86.8985	9,849.61	85.8724	9,849.61	82.8191	9,849.61	83.5276	9,849.61	80.9357	9,849.61	78.5915	9,849.61	79.0385	9,849.61	72.5101	9,849.61	75.7171	9,849.61	72.7657	9,849.61	70.592	9,849.61	70.7367	9,849.61	63.3013	9,849.61	75.4543	9,849.61	39.3429	9,849.61	71.3401	9,849.61	59.7739	9,849.61	57.8188	9,849.61	51.4282	9,849.61	65.515	9,849.61	51.0207	9,849.61	58.7936	9,849.61	50.6407	9,849.61	53.3256	9,849.61	54.9983	9,849.61	56.656	9,849.61	47.6852	9,849.61	42.2118
10,196.8	91.054	10,196.8	90.4019	10,196.8	90.611	10,196.8	90.6987	10,196.8	90.5699	10,196.8	90.1646	10,196.8	88.3606	10,196.8	86.2884	10,196.8	85.1618	10,196.8	84.1821	10,196.8	83.4463	10,196.8	84.2002	10,196.8	78.5771	10,196.8	76.5181	10,196.8	77.2724	10,196.8	73.5111	10,196.8	74.1542	10,196.8	71.3597	10,196.8	52.7911	10,196.8	71.6068	10,196.8	62.4996	10,196.8	66.5342	10,196.8	59.224	10,196.8	68.9623	10,196.8	62.2632	10,196.8	71.5027	10,196.8	59.2759	10,196.8	58.3652	10,196.8	48.9854	10,196.8	56.033	10,196.8	49.4868	10,196.8	53.5946	10,196.8	51.2708	10,196.8	52.2441	10,196.8	47.4145	10,196.8	48.6193
10,555.7	91.4078	10,555.7	89.9071	10,555.7	90.9518	10,555.7	90.7917	10,555.7	90.21	10,555.7	89.5394	10,555.7	88.8206	10,555.7	86.3674	10,555.7	84.0099	10,555.7	83.8477	10,555.7	83.7475	10,555.7	83.9926	10,555.7	80.9812	10,555.7	77.1722	10,555.7	73.4387	10,555.7	75.8938	10,555.7	75.6177	10,555.7	67.1756	10,555.7	65.2927	10,555.7	59.651	10,555.7	51.1759	10,555.7	74.5518	10,555.7	59.1872	10,555.7	70.5896	10,555.7	57.7427	10,555.7	66.5057	10,555.7	55.8494	10,555.7	55.9811	10,555.7	57.5754	10,555.7	50.4984	10,555.7	42.867	10,555.7	51.0585	10,555.7	51.4261	10,555.7	51.8333	10,555.7	51.7474	10,555.7	45.5486
10,927.7	91.4544	10,927.7	90.5296	10,927.7	90.9664	10,927.7	90.3383	10,927.7	89.9611	10,927.7	89.1269	10,927.7	87.8459	10,927.7	85.854	10,927.7	84.9837	10,927.7	83.6097	10,927.7	83.0234	10,927.7	83.0803	10,927.7	81.5746	10,927.7	76.7943	10,927.7	65.1985	10,927.7	71.8084	10,927.7	76.8345	10,927.7	70.933	10,927.7	54.8658	10,927.7	65.618	10,927.7	49.6364	10,927.7	68.6034	10,927.7	57.7761	10,927.7	72.6165	10,927.7	50.7705	10,927.7	63.1843	10,927.7	53.2321	10,927.7	56.7518	10,927.7	59.7439	10,927.7	61.7603	10,927.7	52.8107	10,927.7	56.5768	10,927.7	55.5616	10,927.7	53.081	10,927.7	50.8873	10,927.7	42.8799
11,313	91.1554	11,313	90.435	11,313	90.7678	11,313	89.319	11,313	89.7212	11,313	89.6864	11,313	87.3907	11,313	85.3251	11,313	85.1985	11,313	83.7787	11,313	82.6296	11,313	79.0273	11,313	79.4957	11,313	76.3094	11,313	68.0636	11,313	67.2612	11,313	74.7235	11,313	65.9464	11,313	56.6076	11,313	69.8342	11,313	55.0523	11,313	75.7056	11,313	55.3799	11,313	73.4744	11,313	54.1717	11,313	68.9248	11,313	53.6298	11,313	58.6102	11,313	57.6934	11,313	59.2411	11,313	53.8296	11,313	58.4908	11,313	53.0699	11,313	51.1608	11,313	47.7057	11,313	36.6536
11,712.9	91.0586	11,712.9	90.2212	11,712.9	90.5982	11,712.9	89.754	11,712.9	89.3419	11,712.9	89.517	11,712.9	86.6637	11,712.9	87.1258	11,712.9	84.8735	11,712.9	84.3597	11,712.9	81.6659	11,712.9	78.1237	11,712.9	76.5537	11,712.9	77.9559	11,712.9	67.7699	11,712.9	71.9927	11,712.9	75.0872	11,712.9	71.5069	11,712.9	58.5612	11,712.9	73.1445	11,712.9	63.2615	11,712.9	70.6465	11,712.9	34.2804	11,712.9	72.3946	11,712.9	56.1085	11,712.9	63.9809	11,712.9	46.0715	11,712.9	62.4214	11,712.9	24.6105	11,712.9	57.1754	11,712.9	52.9009	11,712.9	52.7102	11,712.9	53.5209	11,712.9	51.6754	11,712.9	50.1581	11,712.9	49.3545
12,126	90.8107	12,126	90.2255	12,126	91.2509	12,126	89.6693	12,126	89.729	12,126	89.4602	12,126	86.4295	12,126	87.7241	12,126	84.8768	12,126	83.9025	12,126	79.0073	12,126	76.3976	12,126	76.6868	12,126	78.1673	12,126	71.6559	12,126	65.4794	12,126	73.4625	12,126	69.5801	12,126	54.7937	12,126	72.2497	12,126	63.5639	12,126	72.2468	12,126	48.0565	12,126	70.2452	12,126	53.1941	12,126	66.7001	12,126	44.007	12,126	59.7826	12,126	55.1054	12,126	51.8974	12,126	46.5398	12,126	51.9276	12,126	47.6378	12,126	51.6675	12,126	50.8183	12,126	45.7495
12,553.7	90.2163	12,553.7	89.6835	12,553.7	91.2159	12,553.7	90.327	12,553.7	89.7206	12,553.7	88.5463	12,553.7	87.2321	12,553.7	86.7603	12,553.7	83.6537	12,553.7	83.889	12,553.7	79.6519	12,553.7	78.774	12,553.7	77.291	12,553.7	75.8073	12,553.7	70.2997	12,553.7	63.2183	12,553.7	65.7449	12,553.7	68.2197	12,553.7	51.6843	12,553.7	71.9999	12,553.7	63.443	12,553.7	63.7716	12,553.7	44.7901	12,553.7	60.748	12,553.7	50.3331	12,553.7	64.0128	12,553.7	50.722	12,553.7	55.3632	12,553.7	57.8555	12,553.7	46.9468	12,553.7	44.2551	12,553.7	49.9318	12,553.7	44.1213	12,553.7	46.9562	12,553.7	43.4957	12,553.7	43.987
12,996.1	89.5476	12,996.1	89.5424	12,996.1	90.715	12,996.1	90.4778	12,996.1	89.8611	12,996.1	87.6582	12,996.1	87.5601	12,996.1	85.4054	12,996.1	83.3034	12,996.1	82.5663	12,996.1	81.4283	12,996.1	80.184	12,996.1	76.1283	12,996.1	76.8797	12,996.1	67.1291	12,996.1	64.4817	12,996.1	48.5346	12,996.1	63.2308	12,996.1	42.5788	12,996.1	71.7918	12,996.1	59.8896	12,996.1	73.2991	12,996.1	56.5803	12,996.1	68.2243	12,996.1	54.9108	12,996.1	66.7078	12,996.1	53.194	12,996.1	49.0976	12,996.1	50.3569	12,996.1	47.4524	12,996.1	49.8194	12,996.1	54.2519	12,996.1	45.0572	12,996.1	50.5169	12,996.1	45.7029	12,996.1	48.9694
13,454.6	89.5418	13,454.6	89.639	13,454.6	90.2573	13,454.6	90.0783	13,454.6	89.8945	13,454.6	87.4698	13,454.6	87.0394	13,454.6	83.7486	13,454.6	83.9991	13,454.6	82.7741	13,454.6	80.5062	13,454.6	81.089	13,454.6	76.5561	13,454.6	74.4055	13,454.6	59.9192	13,454.6	67.89	13,454.6	64.7601	13,454.6	67.3471	13,454.6	54.1499	13,454.6	72.4693	13,454.6	57.0626	13,454.6	71.7065	13,454.6	55.4338	13,454.6	63.9122	13,454.6	51.0469	13,454.6	57.4223	13,454.6	49.7453	13,454.6	58.3506	13,454.6	52.4138	13,454.6	53.4359	13,454.6	47.2627	13,454.6	48.7901	13,454.6	21.1278	13,454.6	48.9534	13,454.6	49.2512	13,454.6	51.7216
13,929.2	89.8489	13,929.2	89.6731	13,929.2	90.1589	13,929.2	89.7114	13,929.2	90.0659	13,929.2	87.3203	13,929.2	86.8592	13,929.2	84.4284	13,929.2	85.1244	13,929.2	81.6995	13,929.2	79.7011	13,929.2	80.1832	13,929.2	76.0996	13,929.2	76.6177	13,929.2	71.3891	13,929.2	62.248	13,929.2	54.1239	13,929.2	59.8439	13,929.2	53.8731	13,929.2	74.1154	13,929.2	60.4534	13,929.2	70.5311	13,929.2	51.501	13,929.2	60.3417	13,929.2	44.2092	13,929.2	68.6651	13,929.2	47.9521	13,929.2	60.2638	13,929.2	56.7596	13,929.2	50.5921	13,929.2	42.5934	13,929.2	49.919	13,929.2	42.9485	13,929.2	50.7095	13,929.2	49.9219	13,929.2	50.485
14,419.9	89.9744	14,419.9	89.8915	14,419.9	90.1738	14,419.9	89.5292	14,419.9	89.9626	14,419.9	87.7565	14,419.9	86.5045	14,419.9	83.7582	14,419.9	85.3593	14,419.9	81.9393	14,419.9	78.2915	14,419.9	79.9418	14,419.9	75.5434	14,419.9	74.1139	14,419.9	66.1822	14,419.9	64.39	14,419.9	56.9594	14,419.9	67.5454	14,419.9	47.2449	14,419.9	70.8043	14,419.9	59.6629	14,419.9	75.2659	14,419.9	33.4852	14,419.9	65.0379	14,419.9	51.6736	14,419.9	65.8452	14,419.9	40.4678	14,419.9	65.7789	14,419.9	53.4509	14,419.9	58.0988	14,419.9	50.4411	14,419.9	50.4295	14,419.9	49.9756	14,419.9	52.801	14,419.9	46.8279	14,419.9	49.718
14,928.2	89.8412	14,928.2	89.5454	14,928.2	90.0478	14,928.2	89.6357	14,928.2	89.1963	14,928.2	87.6332	14,928.2	87.1202	14,928.2	83.9009	14,928.2	84.2964	14,928.2	82.0312	14,928.2	78.4668	14,928.2	78.8523	14,928.2	71.5552	14,928.2	71.7357	14,928.2	68.7931	14,928.2	67.2959	14,928.2	64.3086	14,928.2	59.1456	14,928.2	54.827	14,928.2	69.0411	14,928.2	61.6905	14,928.2	69.9051	14,928.2	41.3614	14,928.2	63.7059	14,928.2	49.8454	14,928.2	61.6432	14,928.2	46.4517	14,928.2	65.4739	14,928.2	52.8361	14,928.2	54.1104	14,928.2	41.4928	14,928.2	55.0071	14,928.2	33.1591	14,928.2	49.5898	14,928.2	50.503	14,928.2	48.015
15,455.6	90.1937	15,455.6	89.1911	15,455.6	90.0503	15,455.6	89.5153	15,455.6	88.9597	15,455.6	87.4642	15,455.6	86.9891	15,455.6	82.9794	15,455.6	81.9991	15,455.6	81.518	15,455.6	77.1858	15,455.6	78.552	15,455.6	68.8637	15,455.6	71.6914	15,455.6	64.5049	15,455.6	65.6289	15,455.6	64.7831	15,455.6	57.0245	15,455.6	55.0865	15,455.6	69.1282	15,455.6	59.306	15,455.6	44.2495	15,455.6	45.951	15,455.6	70.7392	15,455.6	50.4003	15,455.6	55.1432	15,455.6	48.1251	15,455.6	60.0354	15,455.6	49.4532	15,455.6	55.0753	15,455.6	41.0281	15,455.6	45.4899	15,455.6	47.5981	15,455.6	41.5135	15,455.6	45.5029	15,455.6	40.8201
16,000.5	89.9829	16,000.5	89.032	16,000.5	89.5071	16,000.5	88.7253	16,000.5	88.5345	16,000.5	87.4911	16,000.5	86.3718	16,000.5	82.7509	16,000.5	80.6833	16,000.5	80.1094	16,000.5	76.8539	16,000.5	75.8032	16,000.5	71.9682	16,000.5	72.7834	16,000.5	58.6492	16,000.5	56.8516	16,000.5	66.4596	16,000.5	47.1746	16,000.5	57.8498	16,000.5	70.836	16,000.5	61.5611	16,000.5	65.938	16,000.5	46.9076	16,000.5	69.5362	16,000.5	49.7459	16,000.5	60.9362	16,000.5	45.2026	16,000.5	47.72	16,000.5	48.0131	16,000.5	46.181	16,000.5	34.1351	16,000.5	42.512	16,000.5	45.0249	16,000.5	41.3488	16,000.5	44.5164	16,000.5	45.5904
16,564.5	90.281	16,564.5	89.4483	16,564.5	88.5077	16,564.5	88.2207	16,564.5	87.789	16,564.5	87.2581	16,564.5	85.6333	16,564.5	81.7741	16,564.5	80.9269	16,564.5	78.473	16,564.5	77.0729	16,564.5	69.2211	16,564.5	73.0525	16,564.5	72.3657	16,564.5	66.1458	16,564.5	62.3206	16,564.5	65.504	16,564.5	56.59	16,564.5	55.6329	16,564.5	72.7399	16,564.5	60.9111	16,564.5	57.5935	16,564.5	55.1576	16,564.5	60.6184	16,564.5	53.4699	16,564.5	56.2067	16,564.5	54.4919	16,564.5	48.0939	16,564.5	52.5946	16,564.5	52.6241	16,564.5	40.5849	16,564.5	47.8652	16,564.5	26.4754	16,564.5	45.4069	16,564.5	48.0995	16,564.5	46.4119
17,148.9	90.3444	17,148.9	89.5038	17,148.9	88.3383	17,148.9	88.3941	17,148.9	87.667	17,148.9	86.6868	17,148.9	84.7253	17,148.9	81.084	17,148.9	80.9281	17,148.9	75.9817	17,148.9	75.217	17,148.9	66.8263	17,148.9	69.3268	17,148.9	66.113	17,148.9	66.6953	17,148.9	58.81	17,148.9	59.7248	17,148.9	65.6097	17,148.9	52.2039	17,148.9	70.4024	17,148.9	62.7436	17,148.9	67.4249	17,148.9	46.4987	17,148.9	62.2732	17,148.9	52.3023	17,148.9	65.4219	17,148.9	48.4716	17,148.9	60.6085	17,148.9	43.6922	17,148.9	45.003	17,148.9	40.6939	17,148.9	43.2634	17,148.9	41.8465	17,148.9	48.2146	17,148.9	43.7601	17,148.9	44.4286
17,752.4	90.2942	17,752.4	89.5137	17,752.4	88.3452	17,752.4	88.0707	17,752.4	87.3145	17,752.4	85.495	17,752.4	82.86	17,752.4	79.7858	17,752.4	79.1463	17,752.4	69.9322	17,752.4	72.3718	17,752.4	67.0523	17,752.4	60.8226	17,752.4	69.1963	17,752.4	63.0721	17,752.4	63.9596	17,752.4	59.1704	17,752.4	62.951	17,752.4	55.8327	17,752.4	65.5228	17,752.4	63.5598	17,752.4	73.2044	17,752.4	52.401	17,752.4	66.9648	17,752.4	53.0512	17,752.4	64.9571	17,752.4	53.1611	17,752.4	61.1945	17,752.4	47.9636	17,752.4	47.0292	17,752.4	44.9367	17,752.4	48.2551	17,752.4	47.6438	17,752.4	50.3671	17,752.4	46.8864	17,752.4	41.9811
18,379.4	90.08	18,379.4	89.1849	18,379.4	87.9728	18,379.4	87.342	18,379.4	86.0824	18,379.4	84.2453	18,379.4	80.5522	18,379.4	78.1245	18,379.4	75.2585	18,379.4	66.3547	18,379.4	66.3693	18,379.4	57.8076	18,379.4	58.9787	18,379.4	60.7231	18,379.4	55.0435	18,379.4	64.0093	18,379.4	49.9776	18,379.4	59.1208	18,379.4	52.635	18,379.4	60.594	18,379.4	60.0772	18,379.4	74.1474	18,379.4	38.5462	18,379.4	67.3345	18,379.4	50.0234	18,379.4	48.8597	18,379.4	50.5543	18,379.4	48.5336	18,379.4	45.8513	18,379.4	55.9146	18,379.4	27.6832	18,379.4	47.3472	18,379.4	37.0719	18,379.4	51.8312	18,379.4	39.8581	18,379.4	40.5726
19,026.9	89.7145	19,026.9	88.9103	19,026.9	87.5155	19,026.9	86.3101	19,026.9	84.96	19,026.9	82.5874	19,026.9	78.665	19,026.9	74.266	19,026.9	70.4385	19,026.9	66.1701	19,026.9	58.2384	19,026.9	63.9751	19,026.9	59.9478	19,026.9	54.4451	19,026.9	58.542	19,026.9	60.3655	19,026.9	55.0199	19,026.9	55.6492	19,026.9	55.2873	19,026.9	62.4933	19,026.9	60.8554	19,026.9	68.2599	19,026.9	47.2378	19,026.9	63.9912	19,026.9	45.4843	19,026.9	53.163	19,026.9	43.3355	19,026.9	51.8212	19,026.9	49.5798	19,026.9	49.2478	19,026.9	37.8579	19,026.9	42.9191	19,026.9	26.982	19,026.9	49.3585	19,026.9	32.4153	19,026.9	37.7256
19,697.8	89.1815	19,697.8	88.3647	19,697.8	86.9998	19,697.8	85.4798	19,697.8	83.5769	19,697.8	80.3548	19,697.8	76.6373	19,697.8	69.6373	19,697.8	60.8183	19,697.8	66.178	19,697.8	63.7779	19,697.8	64.8948	19,697.8	61.0622	19,697.8	61.7884	19,697.8	60.1465	19,697.8	53.9377	19,697.8	55.5724	19,697.8	37.7241	19,697.8	54.1246	19,697.8	62.1489	19,697.8	61.7605	19,697.8	58.5667	19,697.8	47.7332	19,697.8	59.3936	19,697.8	51.3721	19,697.8	59.7077	19,697.8	48.7513	19,697.8	40.7852	19,697.8	50.0691	19,697.8	49.9989	19,697.8	31.8475	19,697.8	41.6787	19,697.8	39.2289	19,697.8	46.316	19,697.8	29.6292	19,697.8	42.8504
19,999.5	88.6958	19,999.5	87.8002	19,999.5	86.9043	19,999.5	84.6706	19,999.5	82.7004	19,999.5	78.9671	19,999.5	74.7664	19,999.5	65.9833	19,999.5	52.7279	19,999.5	68.3884	19,999.5	62.2038	19,999.5	66.3699	19,999.5	61.7903	19,999.5	62.9652	19,999.5	57.2862	19,999.5	50.7098	19,999.5	58.4253	19,999.5	58.1344	19,999.5	60.2997	19,999.5	67.6116	19,999.5	63.6145	19,999.5	51.6552	19,999.5	50.6159	19,999.5	69.8327	19,999.5	53.74	19,999.5	62.4348	19,999.5	44.6878	19,999.5	55.7269	19,999.5	48.7565	19,999.5	40.207	19,999.5	45.0031	19,999.5	50.3026	19,999.5	36.1978	19,999.5	48.1923	19,999.5	42.0618	19,999.5	44.7687
