"SPL Horizontal"
"On-Axis"		"10°"		"-10°"		"20°"		"-20°"		"30°"		"-30°"		"40°"		"-40°"		"50°"		"-50°"		"60°"		"-60°"		"70°"		"-70°"		"80°"		"-80°"		"90°"		"-90°"		"100°"		"-100°"		"110°"		"-110°"		"120°"		"-120°"		"130°"		"-130°"		"140°"		"-140°"		"150°"		"-150°"		"160°"		"-160°"		"170°"		"-170°"		"180°"
"Frequency / Hz"	"Sound Pressure Level / dB (re 20 µPa/V)  [2.83  V @ 1. m]"	"Frequency / Hz"	"Sound Pressure Level / dB (re 20 µPa/V)  [2.83  V @ 1. m]"	"Frequency / Hz"	"Sound Pressure Level / dB (re 20 µPa/V)  [2.83  V @ 1. m]"	"Frequency / Hz"	"Sound Pressure Level / dB (re 20 µPa/V)  [2.83  V @ 1. m]"	"Frequency / Hz"	"Sound Pressure Level / dB (re 20 µPa/V)  [2.83  V @ 1. m]"	"Frequency / Hz"	"Sound Pressure Level / dB (re 20 µPa/V)  [2.83  V @ 1. m]"	"Frequency / Hz"	"Sound Pressure Level / dB (re 20 µPa/V)  [2.83  V @ 1. m]"	"Frequency / Hz"	"Sound Pressure Level / dB (re 20 µPa/V)  [2.83  V @ 1. m]"	"Frequency / Hz"	"Sound Pressure Level / dB (re 20 µPa/V)  [2.83  V @ 1. m]"	"Frequency / Hz"	"Sound Pressure Level / dB (re 20 µPa/V)  [2.83  V @ 1. m]"	"Frequency / Hz"	"Sound Pressure Level / dB (re 20 µPa/V)  [2.83  V @ 1. m]"	"Frequency / Hz"	"Sound Pressure Level / dB (re 20 µPa/V)  [2.83  V @ 1. m]"	"Frequency / Hz"	"Sound Pressure Level / dB (re 20 µPa/V)  [2.83  V @ 1. m]"	"Frequency / Hz"	"Sound Pressure Level / dB (re 20 µPa/V)  [2.83  V @ 1. m]"	"Frequency / Hz"	"Sound Pressure Level / dB (re 20 µPa/V)  [2.83  V @ 1. m]"	"Frequency / Hz"	"Sound Pressure Level / dB (re 20 µPa/V)  [2.83  V @ 1. m]"	"Frequency / Hz"	"Sound Pressure Level / dB (re 20 µPa/V)  [2.83  V @ 1. m]"	"Frequency / Hz"	"Sound Pressure Level / dB (re 20 µPa/V)  [2.83  V @ 1. m]"	"Frequency / Hz"	"Sound Pressure Level / dB (re 20 µPa/V)  [2.83  V @ 1. m]"	"Frequency / Hz"	"Sound Pressure Level / dB (re 20 µPa/V)  [2.83  V @ 1. m]"	"Frequency / Hz"	"Sound Pressure Level / dB (re 20 µPa/V)  [2.83  V @ 1. m]"	"Frequency / Hz"	"Sound Pressure Level / dB (re 20 µPa/V)  [2.83  V @ 1. m]"	"Frequency / Hz"	"Sound Pressure Level / dB (re 20 µPa/V)  [2.83  V @ 1. m]"	"Frequency / Hz"	"Sound Pressure Level / dB (re 20 µPa/V)  [2.83  V @ 1. m]"	"Frequency / Hz"	"Sound Pressure Level / dB (re 20 µPa/V)  [2.83  V @ 1. m]"	"Frequency / Hz"	"Sound Pressure Level / dB (re 20 µPa/V)  [2.83  V @ 1. m]"	"Frequency / Hz"	"Sound Pressure Level / dB (re 20 µPa/V)  [2.83  V @ 1. m]"	"Frequency / Hz"	"Sound Pressure Level / dB (re 20 µPa/V)  [2.83  V @ 1. m]"	"Frequency / Hz"	"Sound Pressure Level / dB (re 20 µPa/V)  [2.83  V @ 1. m]"	"Frequency / Hz"	"Sound Pressure Level / dB (re 20 µPa/V)  [2.83  V @ 1. m]"	"Frequency / Hz"	"Sound Pressure Level / dB (re 20 µPa/V)  [2.83  V @ 1. m]"	"Frequency / Hz"	"Sound Pressure Level / dB (re 20 µPa/V)  [2.83  V @ 1. m]"	"Frequency / Hz"	"Sound Pressure Level / dB (re 20 µPa/V)  [2.83  V @ 1. m]"	"Frequency / Hz"	"Sound Pressure Level / dB (re 20 µPa/V)  [2.83  V @ 1. m]"	"Frequency / Hz"	"Sound Pressure Level / dB (re 20 µPa/V)  [2.83  V @ 1. m]"	"Frequency / Hz"	"Sound Pressure Level / dB (re 20 µPa/V)  [2.83  V @ 1. m]"
20.5078	65.255	20.5078	65.2247	20.5078	65.2677	20.5078	65.1783	20.5078	65.2614	20.5078	65.1172	20.5078	65.2352	20.5078	65.0429	20.5078	65.1883	20.5078	64.957	20.5078	65.1207	20.5078	64.861	20.5078	65.0334	20.5078	64.7566	20.5078	64.9282	20.5078	64.6458	20.5078	64.8079	20.5078	64.5308	20.5078	64.6764	20.5078	64.4143	20.5078	64.5383	20.5078	64.2993	20.5078	64.399	20.5078	64.189	20.5078	64.2641	20.5078	64.087	20.5078	64.1393	20.5078	63.9966	20.5078	64.0298	20.5078	63.9215	20.5078	63.9402	20.5078	63.8648	20.5078	63.8739	20.5078	63.8296	20.5078	63.8331	20.5078	63.8185
21.9727	66.0066	21.9727	65.9737	21.9727	66.0198	21.9727	65.922	21.9727	66.0129	21.9727	65.8526	21.9727	65.9855	21.9727	65.7669	21.9727	65.9378	21.9727	65.6668	21.9727	65.8706	21.9727	65.5545	21.9727	65.7852	21.9727	65.4329	21.9727	65.6838	21.9727	65.3057	21.9727	65.5696	21.9727	65.177	21.9727	65.4465	21.9727	65.051	21.9727	65.3188	21.9727	64.9326	21.9727	65.1911	21.9727	64.826	21.9727	65.0676	21.9727	64.7352	21.9727	64.9523	21.9727	64.6633	21.9727	64.8485	21.9727	64.6125	21.9727	64.7587	21.9727	64.5839	21.9727	64.6851	21.9727	64.5777	21.9727	64.6294	21.9727	64.5932
23.4375	66.8019	23.4375	66.7692	23.4375	66.8117	23.4375	66.7144	23.4375	66.798	23.4375	66.6385	23.4375	66.7605	23.4375	66.543	23.4375	66.6995	23.4375	66.4296	23.4375	66.6157	23.4375	66.3009	23.4375	66.5106	23.4375	66.1599	23.4375	66.3867	23.4375	66.0105	23.4375	66.2474	23.4375	65.8571	23.4375	66.0973	23.4375	65.7047	23.4375	65.9413	23.4375	65.5586	23.4375	65.7849	23.4375	65.424	23.4375	65.6334	23.4375	65.3058	23.4375	65.492	23.4375	65.2081	23.4375	65.3654	23.4375	65.1343	23.4375	65.2573	23.4375	65.0867	23.4375	65.1712	23.4375	65.0666	23.4375	65.1096	23.4375	65.0744
24.9023	67.6056	24.9023	67.5764	24.9023	67.6101	24.9023	67.5233	24.9023	67.5895	24.9023	67.4474	24.9023	67.5438	24.9023	67.35	24.9023	67.4732	24.9023	67.233	24.9023	67.3787	24.9023	67.0989	24.9023	67.2619	24.9023	66.9506	24.9023	67.1253	24.9023	66.7919	24.9023	66.9726	24.9023	66.6271	24.9023	66.8081	24.9023	66.4613	24.9023	66.637	24.9023	66.2998	24.9023	66.4653	24.9023	66.1481	24.9023	66.2988	24.9023	66.0116	24.9023	66.1435	24.9023	65.8953	24.9023	66.005	24.9023	65.8035	24.9023	65.8883	24.9023	65.7397	24.9023	65.7975	24.9023	65.7065	24.9023	65.7357	24.9023	65.7051
26.3672	68.6983	26.3672	68.6768	26.3672	68.696	26.3672	68.6317	26.3672	68.6696	26.3672	68.564	26.3672	68.6195	26.3672	68.4749	26.3672	68.5461	26.3672	68.3659	26.3672	68.4508	26.3672	68.2395	26.3672	68.3352	26.3672	68.0986	26.3672	68.2021	26.3672	67.947	26.3672	68.0548	26.3672	67.789	26.3672	67.8978	26.3672	67.6295	26.3672	67.7359	26.3672	67.4739	26.3672	67.5745	26.3672	67.3273	26.3672	67.4193	26.3672	67.1949	26.3672	67.2758	26.3672	67.0815	26.3672	67.1489	26.3672	66.9911	26.3672	67.0431	26.3672	66.9267	26.3672	66.9622	26.3672	66.8909	26.3672	66.9088	26.3672	66.8848
27.832	69.4043	27.832	69.387	27.832	69.3978	27.832	69.3463	27.832	69.3675	27.832	69.2829	27.832	69.3139	27.832	69.1982	27.832	69.238	27.832	69.0937	27.832	69.1412	27.832	68.972	27.832	69.0257	27.832	68.8359	27.832	68.8945	27.832	68.6892	27.832	68.7511	27.832	68.5363	27.832	68.6	27.832	68.382	27.832	68.4459	27.832	68.2315	27.832	68.2939	27.832	68.09	27.832	68.1489	27.832	67.9625	27.832	68.0159	27.832	67.8532	27.832	67.8993	27.832	67.7661	27.832	67.8027	27.832	67.7039	27.832	67.7294	27.832	67.6686	27.832	67.6817	27.832	67.6611
29.2969	70.0336	29.2969	70.0208	29.2969	70.0224	29.2969	69.9843	29.2969	69.9874	29.2969	69.9248	29.2969	69.9294	29.2969	69.8434	29.2969	69.8495	29.2969	69.7418	29.2969	69.7496	29.2969	69.6225	29.2969	69.6321	29.2969	69.4884	29.2969	69.5003	29.2969	69.3432	29.2969	69.3578	29.2969	69.1913	29.2969	69.2091	29.2969	69.0374	29.2969	69.0588	29.2969	68.8868	29.2969	68.9117	29.2969	68.7447	29.2969	68.7725	29.2969	68.6161	29.2969	68.6454	29.2969	68.5058	29.2969	68.5344	29.2969	68.4177	29.2969	68.4428	29.2969	68.3546	29.2969	68.3734	29.2969	68.3184	29.2969	68.3284	29.2969	68.3097
30.7617	70.6691	30.7617	70.6587	30.7617	70.6537	30.7617	70.6227	30.7617	70.6127	30.7617	70.5621	30.7617	70.5471	30.7617	70.4784	30.7617	70.4584	30.7617	70.3738	30.7617	70.3489	30.7617	70.2514	30.7617	70.2216	30.7617	70.1146	30.7617	70.0803	30.7617	69.9678	30.7617	69.9293	30.7617	69.8157	30.7617	69.7737	30.7617	69.6634	30.7617	69.6189	30.7617	69.516	30.7617	69.4702	30.7617	69.3782	30.7617	69.3329	30.7617	69.2542	30.7617	69.2115	30.7617	69.1475	30.7617	69.1095	30.7617	69.0607	30.7617	69.0297	30.7617	68.9957	30.7617	68.9737	30.7617	68.9538	30.7617	68.9424	30.7617	68.9359
32.2266	71.6114	32.2266	71.5998	32.2266	71.597	32.2266	71.5624	32.2266	71.557	32.2266	71.5003	32.2266	71.4921	32.2266	71.4148	32.2266	71.4037	32.2266	71.3082	32.2266	71.2941	32.2266	71.1832	32.2266	71.1661	32.2266	71.0433	32.2266	71.0233	32.2266	70.8928	32.2266	70.8702	32.2266	70.7365	32.2266	70.7115	32.2266	70.5794	32.2266	70.5526	32.2266	70.4267	32.2266	70.3991	32.2266	70.2835	32.2266	70.256	32.2266	70.1543	32.2266	70.1283	32.2266	70.0429	32.2266	70.0197	32.2266	69.9524	32.2266	69.9336	32.2266	69.8852	32.2266	69.8718	32.2266	69.8428	32.2266	69.8358	32.2266	69.8262
33.6914	72.1945	33.6914	72.1827	33.6914	72.1794	33.6914	72.1443	33.6914	72.1378	33.6914	72.0804	33.6914	72.0706	33.6914	71.9927	33.6914	71.9794	33.6914	71.8834	33.6914	71.8667	33.6914	71.7557	33.6914	71.7356	33.6914	71.6135	33.6914	71.5902	33.6914	71.4613	33.6914	71.435	33.6914	71.304	33.6914	71.2753	33.6914	71.147	33.6914	71.1166	33.6914	70.9956	33.6914	70.9643	33.6914	70.8546	33.6914	70.8238	33.6914	70.7284	33.6914	70.6993	33.6914	70.6203	33.6914	70.5945	33.6914	70.533	33.6914	70.512	33.6914	70.4683	33.6914	70.4535	33.6914	70.4274	33.6914	70.4197	33.6914	70.4111
35.1562	72.9272	35.1562	72.912	35.1562	72.9135	35.1562	72.8682	35.1562	72.8712	35.1562	72.7969	35.1562	72.8013	35.1562	72.6999	35.1562	72.7056	35.1562	72.5799	35.1562	72.5867	35.1562	72.4401	35.1562	72.4478	35.1562	72.2849	35.1562	72.2932	35.1562	72.1191	35.1562	72.1278	35.1562	71.9485	35.1562	71.957	35.1562	71.7788	35.1562	71.7868	35.1562	71.616	35.1562	71.623	35.1562	71.4655	35.1562	71.4712	35.1562	71.3319	35.1562	71.3361	35.1562	71.2189	35.1562	71.2216	35.1562	71.129	35.1562	71.1306	35.1562	71.0641	35.1562	71.0648	35.1562	71.0248	35.1562	71.0251	35.1562	71.0117
36.6211	73.6472	36.6211	73.6334	36.6211	73.6324	36.6211	73.5915	36.6211	73.5892	36.6211	73.5224	36.6211	73.5189	36.6211	73.428	36.6211	73.4232	36.6211	73.3109	36.6211	73.3046	36.6211	73.1745	36.6211	73.1667	36.6211	73.023	36.6211	73.0137	36.6211	72.8614	36.6211	72.8504	36.6211	72.6949	36.6211	72.6826	36.6211	72.5294	36.6211	72.5158	36.6211	72.3704	36.6211	72.356	36.6211	72.223	36.6211	72.2084	36.6211	72.0918	36.6211	72.0776	36.6211	71.9803	36.6211	71.9675	36.6211	71.8911	36.6211	71.8804	36.6211	71.8258	36.6211	71.8182	36.6211	71.7854	36.6211	71.7814	36.6211	71.7705
38.0859	74.3886	38.0859	74.3736	38.0859	74.3744	38.0859	74.33	38.0859	74.3311	38.0859	74.2589	38.0859	74.2598	38.0859	74.1623	38.0859	74.1622	38.0859	74.043	38.0859	74.041	38.0859	73.9047	38.0859	73.8995	38.0859	73.7517	38.0859	73.7422	38.0859	73.589	38.0859	73.5743	38.0859	73.4222	38.0859	73.4015	38.0859	73.2567	38.0859	73.2302	38.0859	73.0983	38.0859	73.0664	38.0859	72.9516	38.0859	72.916	38.0859	72.8209	38.0859	72.7839	38.0859	72.7093	38.0859	72.6739	38.0859	72.6191	38.0859	72.5887	38.0859	72.5518	38.0859	72.5295	38.0859	72.5085	38.0859	72.4966	38.0859	72.4898
39.5508	74.8203	39.5508	74.8033	39.5508	74.8078	39.5508	74.7571	39.5508	74.7659	39.5508	74.683	39.5508	74.6958	39.5508	74.5831	39.5508	74.5995	39.5508	74.4603	39.5508	74.4797	39.5508	74.3184	39.5508	74.3402	39.5508	74.162	39.5508	74.1855	39.5508	73.9965	39.5508	74.0209	39.5508	73.8278	39.5508	73.8522	39.5508	73.662	39.5508	73.6854	39.5508	73.5049	39.5508	73.5266	39.5508	73.3617	39.5508	73.3809	39.5508	73.2366	39.5508	73.2527	39.5508	73.1325	39.5508	73.1452	39.5508	73.0512	39.5508	73.0605	39.5508	72.9935	39.5508	72.9995	39.5508	72.9594	39.5508	72.9624	39.5508	72.9491
41.0156	75.5124	41.0156	75.4941	41.0156	75.5017	41.0156	75.4471	41.0156	75.4625	41.0156	75.3729	41.0156	75.396	41.0156	75.2737	41.0156	75.3047	41.0156	75.1524	41.0156	75.1917	41.0156	75.0131	41.0156	75.0612	41.0156	74.8607	41.0156	74.9181	41.0156	74.7006	41.0156	74.7674	41.0156	74.5388	41.0156	74.6146	41.0156	74.3814	41.0156	74.4646	41.0156	74.2342	41.0156	74.3219	41.0156	74.1021	41.0156	74.1903	41.0156	73.989	41.0156	74.0731	41.0156	73.8975	41.0156	73.9725	41.0156	73.8291	41.0156	73.8901	41.0156	73.7842	41.0156	73.8272	41.0156	73.7622	41.0156	73.7845	41.0156	73.7626
42.4805	76.0291	42.4805	76.0127	42.4805	76.0139	42.4805	75.9655	42.4805	75.9674	42.4805	75.8888	42.4805	75.8905	42.4805	75.785	42.4805	75.7853	42.4805	75.6572	42.4805	75.6547	42.4805	75.5095	42.4805	75.5028	42.4805	75.3467	42.4805	75.3348	42.4805	75.1746	42.4805	75.1566	42.4805	74.999	42.4805	74.9752	42.4805	74.8265	42.4805	74.7975	42.4805	74.663	42.4805	74.6305	42.4805	74.5137	42.4805	74.48	42.4805	74.3829	42.4805	74.3503	42.4805	74.2735	42.4805	74.2444	42.4805	74.187	42.4805	74.1635	42.4805	74.1241	42.4805	74.1077	42.4805	74.0848	42.4805	74.0763	42.4805	74.0688
43.9453	76.5624	43.9453	76.5455	43.9453	76.5482	43.9453	76.4984	43.9453	76.5033	43.9453	76.4223	43.9453	76.4287	43.9453	76.32	43.9453	76.3268	43.9453	76.1946	43.9453	76.2005	43.9453	76.0505	43.9453	76.0543	43.9453	75.8928	43.9453	75.8932	43.9453	75.7271	43.9453	75.7234	43.9453	75.5596	43.9453	75.5513	43.9453	75.3964	43.9453	75.3838	43.9453	75.2432	43.9453	75.2271	43.9453	75.1047	43.9453	75.0865	43.9453	74.9847	43.9453	74.966	43.9453	74.8853	43.9453	74.8679	43.9453	74.8076	43.9453	74.7931	43.9453	74.7517	43.9453	74.7413	43.9453	74.7173	43.9453	74.7119	43.9453	74.704
45.4102	77.0199	45.4102	77.0022	45.4102	77.0062	45.4102	76.9537	45.4102	76.9614	45.4102	76.8758	45.4102	76.8871	45.4102	76.7712	45.4102	76.7857	45.4102	76.6436	45.4102	76.6605	45.4102	76.4974	45.4102	76.5163	45.4102	76.3382	45.4102	76.3583	45.4102	76.1722	45.4102	76.1926	45.4102	76.0058	45.4102	76.0258	45.4102	75.8453	45.4102	75.8642	45.4102	75.6965	45.4102	75.7137	45.4102	75.5639	45.4102	75.579	45.4102	75.4507	45.4102	75.4635	45.4102	75.3587	45.4102	75.3691	45.4102	75.2884	45.4102	75.2964	45.4102	75.2395	45.4102	75.2449	45.4102	75.2112	45.4102	75.2139	45.4102	75.2028
46.875	77.4923	46.875	77.4727	46.875	77.4788	46.875	77.4209	46.875	77.4326	46.875	77.3383	46.875	77.3552	46.875	77.2278	46.875	77.2489	46.875	77.0932	46.875	77.1173	46.875	76.9393	46.875	76.965	46.875	76.7721	46.875	76.7978	46.875	76.5981	46.875	76.622	46.875	76.4242	46.875	76.4446	46.875	76.2571	46.875	76.2728	46.875	76.1026	46.875	76.1129	46.875	75.9653	46.875	75.9702	46.875	75.8482	46.875	75.8485	46.875	75.7528	46.875	75.7499	46.875	75.6793	46.875	75.675	46.875	75.6272	46.875	75.6231	46.875	75.5958	46.875	75.5933	46.875	75.5844
48.3398	78.0004	48.3398	77.9887	48.3398	77.9814	48.3398	77.9469	48.3398	77.9321	48.3398	77.8764	48.3398	77.8538	48.3398	77.7796	48.3398	77.7489	48.3398	77.66	48.3398	77.6209	48.3398	77.5221	48.3398	77.4744	48.3398	77.3712	48.3398	77.3152	48.3398	77.2135	48.3398	77.1499	48.3398	77.0557	48.3398	76.9856	48.3398	76.9041	48.3398	76.8295	48.3398	76.7645	48.3398	76.6879	48.3398	76.6412	48.3398	76.5657	48.3398	76.5367	48.3398	76.4661	48.3398	76.4519	48.3398	76.3899	48.3398	76.3863	48.3398	76.3363	48.3398	76.3383	48.3398	76.3033	48.3398	76.3065	48.3398	76.2885	48.3398	76.2899
51.2695	78.9346	51.2695	78.9259	51.2695	78.9102	51.2695	78.8845	51.2695	78.8533	51.2695	78.8121	51.2695	78.7659	51.2695	78.7117	51.2695	78.6511	51.2695	78.5872	51.2695	78.5134	51.2695	78.4442	51.2695	78.3584	51.2695	78.2887	51.2695	78.1928	51.2695	78.1278	51.2695	78.0239	51.2695	77.9686	51.2695	77.8594	51.2695	77.8175	51.2695	77.7063	51.2695	77.68	51.2695	77.5706	51.2695	77.5602	51.2695	77.4564	51.2695	77.4598	51.2695	77.3657	51.2695	77.3791	51.2695	77.2985	51.2695	77.3168	51.2695	77.2531	51.2695	77.271	51.2695	77.227	51.2695	77.2398	51.2695	77.2173	51.2695	77.2219
52.7344	79.4939	52.7344	79.4857	52.7344	79.4668	52.7344	79.4432	52.7344	79.4053	52.7344	79.3682	52.7344	79.3111	52.7344	79.264	52.7344	79.1875	52.7344	79.1349	52.7344	79.0392	52.7344	78.9866	52.7344	78.8724	52.7344	78.8255	52.7344	78.6944	52.7344	78.6589	52.7344	78.5133	52.7344	78.4939	52.7344	78.3375	52.7344	78.3373	52.7344	78.1751	52.7344	78.1946	52.7344	78.0325	52.7344	78.0696	52.7344	77.9143	52.7344	77.9641	52.7344	77.8224	52.7344	77.8784	52.7344	77.7565	52.7344	77.8109	52.7344	77.7145	52.7344	77.7597	52.7344	77.693	52.7344	77.7228	52.7344	77.6888	52.7344	77.6992
54.1992	79.8909	54.1992	79.8781	54.1992	79.8675	54.1992	79.83	54.1992	79.8081	54.1992	79.7489	54.1992	79.7146	54.1992	79.6383	54.1992	79.5901	54.1992	79.5032	54.1992	79.4394	54.1992	79.3496	54.1992	79.2686	54.1992	79.1844	54.1992	79.0855	54.1992	79.0153	54.1992	78.8985	54.1992	78.8496	54.1992	78.7168	54.1992	78.6942	54.1992	78.5489	54.1992	78.5545	54.1992	78.4021	54.1992	78.4337	54.1992	78.2813	54.1992	78.333	54.1992	78.1888	54.1992	78.2518	54.1992	78.1241	54.1992	78.188	54.1992	78.0846	54.1992	78.1391	54.1992	78.0663	54.1992	78.1029	54.1992	78.0653	54.1992	78.0781
55.6641	80.2425	55.6641	80.2213	55.6641	80.2256	55.6641	80.1631	55.6641	80.1709	55.6641	80.0705	55.6641	80.08	55.6641	79.9473	55.6641	79.9563	55.6641	79.7988	55.6641	79.8045	55.6641	79.6319	55.6641	79.631	55.6641	79.4543	55.6641	79.4435	55.6641	79.2745	55.6641	79.2509	55.6641	79.1008	55.6641	79.0628	55.6641	78.9406	55.6641	78.8882	55.6641	78.7997	55.6641	78.7346	55.6641	78.6812	55.6641	78.6076	55.6641	78.5857	55.6641	78.5093	55.6641	78.5118	55.6641	78.4392	55.6641	78.4563	55.6641	78.3945	55.6641	78.4159	55.6641	78.371	55.6641	78.3878	55.6641	78.3641	55.6641	78.3704
58.5938	81.4634	58.5938	81.4391	58.5938	81.4474	58.5938	81.3755	58.5938	81.3917	58.5938	81.2751	58.5938	81.2981	58.5938	81.1415	58.5938	81.1698	58.5938	80.9803	58.5938	81.0118	58.5938	80.7982	58.5938	80.8305	58.5938	80.6036	58.5938	80.6338	58.5938	80.4056	58.5938	80.4309	58.5938	80.2135	58.5938	80.2315	58.5938	80.036	58.5938	80.0449	58.5938	79.8801	58.5938	79.8793	58.5938	79.7499	58.5938	79.7403	58.5938	79.6469	58.5938	79.6308	58.5938	79.5696	58.5938	79.5502	58.5938	79.5146	58.5938	79.4957	58.5938	79.4778	58.5938	79.4629	58.5938	79.4556	58.5938	79.4474	58.5938	79.4455
60.0586	82.0033	60.0586	81.9764	60.0586	81.9888	60.0586	81.9092	60.0586	81.9333	60.0586	81.8042	60.0586	81.8386	60.0586	81.6653	60.0586	81.7079	60.0586	81.4982	60.0586	81.5462	60.0586	81.3099	60.0586	81.36	60.0586	81.1088	60.0586	81.1574	60.0586	80.9044	60.0586	80.9477	60.0586	80.7062	60.0586	80.7409	60.0586	80.5231	60.0586	80.5468	60.0586	80.3622	60.0586	80.374	60.0586	80.2278	60.0586	80.2284	60.0586	80.1213	60.0586	80.113	60.0586	80.0415	60.0586	80.0277	60.0586	79.9847	60.0586	79.9696	60.0586	79.9469	60.0586	79.9343	60.0586	79.9242	60.0586	79.9171	60.0586	79.9144
62.9883	82.9185	62.9883	82.8898	62.9883	82.9046	62.9883	82.8196	62.9883	82.8486	62.9883	82.7105	62.9883	82.7523	62.9883	82.5667	62.9883	82.6194	62.9883	82.3943	62.9883	82.4552	62.9883	82.2008	62.9883	82.2665	62.9883	81.9953	62.9883	82.0619	62.9883	81.788	62.9883	81.8512	62.9883	81.5889	62.9883	81.645	62.9883	81.4075	62.9883	81.4531	62.9883	81.2509	62.9883	81.2842	62.9883	81.1233	62.9883	81.144	62.9883	81.0252	62.9883	81.0349	62.9883	80.9545	62.9883	80.9559	62.9883	80.9066	62.9883	80.9032	62.9883	80.8765	62.9883	80.8719	62.9883	80.8596	62.9883	80.8565	62.9883	80.8531
64.4531	83.3597	64.4531	83.3292	64.4531	83.3468	64.4531	83.2565	64.4531	83.2909	64.4531	83.1443	64.4531	83.1942	64.4531	82.9972	64.4531	83.0602	64.4531	82.8213	64.4531	82.8944	64.4531	82.6246	64.4531	82.704	64.4531	82.4166	64.4531	82.498	64.4531	82.2078	64.4531	82.2865	64.4531	82.0088	64.4531	82.0803	64.4531	81.8292	64.4531	81.8897	64.4531	81.6761	64.4531	81.7234	64.4531	81.5535	64.4531	81.5869	64.4531	81.4616	64.4531	81.4824	64.4531	81.3974	64.4531	81.4081	64.4531	81.3559	64.4531	81.3598	64.4531	81.3313	64.4531	81.3316	64.4531	81.3184	64.4531	81.3178	64.4531	81.3141
67.3828	84.2661	67.3828	84.2322	67.3828	84.2538	67.3828	84.1534	67.3828	84.1957	67.3828	84.0328	67.3828	84.0941	67.3828	83.8753	67.3828	83.9527	67.3828	83.6876	67.3828	83.7776	67.3828	83.4788	67.3828	83.5767	67.3828	83.2592	67.3828	83.3596	67.3828	83.0406	67.3828	83.1377	67.3828	82.8346	67.3828	82.923	67.3828	82.6518	67.3828	82.7268	67.3828	82.4996	67.3828	82.5584	67.3828	82.382	67.3828	82.4238	67.3828	82.298	67.3828	82.3244	67.3828	82.2435	67.3828	82.2575	67.3828	82.2117	67.3828	82.2172	67.3828	82.1952	67.3828	82.1962	67.3828	82.1877	67.3828	82.1874	67.3828	82.1854
68.8477	84.7482	68.8477	84.7117	68.8477	84.7362	68.8477	84.628	68.8477	84.6762	68.8477	84.5002	68.8477	84.5702	68.8477	84.3334	68.8477	84.4224	68.8477	84.1346	68.8477	84.2388	68.8477	83.913	68.8477	84.0274	68.8477	83.6797	68.8477	83.7985	68.8477	83.4472	68.8477	83.5638	68.8477	83.228	68.8477	83.336	68.8477	83.0335	68.8477	83.1273	68.8477	82.872	68.8477	82.948	68.8477	82.7478	68.8477	82.8043	68.8477	82.6601	68.8477	82.6982	68.8477	82.6041	68.8477	82.6269	68.8477	82.5724	68.8477	82.5841	68.8477	82.5569	68.8477	82.5618	68.8477	82.5506	68.8477	82.5521	68.8477	82.5493
71.7773	85.6265	71.7773	85.5853	71.7773	85.6167	71.7773	85.4945	71.7773	85.5566	71.7773	85.357	71.7773	85.4481	71.7773	85.1779	71.7773	85.2954	71.7773	84.9641	71.7773	85.1043	71.7773	84.7252	71.7773	84.8828	71.7773	84.4725	71.7773	84.641	71.7773	84.2193	71.7773	84.3909	71.7773	83.9789	71.7773	84.1453	71.7773	83.7641	71.7773	83.9172	71.7773	83.5843	71.7773	83.7175	71.7773	83.4447	71.7773	83.5538	71.7773	83.3452	71.7773	83.4289	71.7773	83.281	71.7773	83.341	71.7773	83.2446	71.7773	83.2843	71.7773	83.2274	71.7773	83.2508	71.7773	83.2222	71.7773	83.2328	71.7773	83.2243
74.707	86.3981	74.707	86.3577	74.707	86.3872	74.707	86.2668	74.707	86.3255	74.707	86.1285	74.707	86.2157	74.707	85.9475	74.707	86.062	74.707	85.7309	74.707	85.8707	74.707	85.4884	74.707	85.6502	74.707	85.2317	74.707	85.4109	74.707	84.9743	74.707	85.1649	74.707	84.7306	74.707	84.925	74.707	84.5137	74.707	84.7038	74.707	84.334	74.707	84.5116	74.707	84.1969	74.707	84.3551	74.707	84.1024	74.707	84.236	74.707	84.0455	74.707	84.1519	74.707	84.0177	74.707	84.0963	74.707	84.0098	74.707	84.0612	74.707	84.0137	74.707	84.039	74.707	84.0239
77.6367	87.1724	77.6367	87.135	77.6367	87.1563	77.6367	87.0449	77.6367	87.0873	77.6367	86.9052	77.6367	86.9684	77.6367	86.7212	77.6367	86.8045	77.6367	86.5004	77.6367	86.6027	77.6367	86.2532	77.6367	86.3724	77.6367	85.9922	77.6367	86.1255	77.6367	85.7322	77.6367	85.8755	77.6367	85.4884	77.6367	85.6365	77.6367	85.275	77.6367	85.422	77.6367	85.1026	77.6367	85.2424	77.6367	84.9763	77.6367	85.1033	77.6367	84.895	77.6367	85.0048	77.6367	84.8523	77.6367	84.9417	77.6367	84.8379	77.6367	84.9054	77.6367	84.8408	77.6367	84.8858	77.6367	84.8513	77.6367	84.8737	77.6367	84.863
79.1016	87.5216	79.1016	87.4847	79.1016	87.5028	79.1016	87.3932	79.1016	87.4293	79.1016	87.2502	79.1016	87.3038	79.1016	87.0611	79.1016	87.1315	79.1016	86.8336	79.1016	86.9196	79.1016	86.5783	79.1016	86.6782	79.1016	86.3083	79.1016	86.4194	79.1016	86.0387	79.1016	86.1578	79.1016	85.7858	79.1016	85.9085	79.1016	85.5642	79.1016	85.6858	79.1016	85.3854	79.1016	85.5009	79.1016	85.2549	79.1016	85.3598	79.1016	85.1716	79.1016	85.2624	79.1016	85.1286	79.1016	85.2027	79.1016	85.1148	79.1016	85.171	79.1016	85.1185	79.1016	85.156	79.1016	85.1291	79.1016	85.1479	79.1016	85.1397
82.0312	88.07	82.0312	88.0348	82.0312	88.0458	82.0312	87.9413	82.0312	87.9627	82.0312	87.7929	82.0312	87.8237	82.0312	87.5953	82.0312	87.6337	82.0312	87.3565	82.0312	87.4004	82.0312	87.0876	82.0312	87.1343	82.0312	86.8025	82.0312	86.849	82.0312	86.5172	82.0312	86.5603	82.0312	86.249	82.0312	86.2859	82.0312	86.0138	82.0312	86.0424	82.0312	85.8237	82.0312	85.8432	82.0312	85.6849	82.0312	85.6956	82.0312	85.5958	82.0312	85.5994	82.0312	85.5486	82.0312	85.5475	82.0312	85.5312	82.0312	85.5278	82.0312	85.5303	82.0312	85.5267	82.0312	85.5343	82.0312	85.5321	82.0312	85.5357
84.9609	88.5064	84.9609	88.4653	84.9609	88.4864	84.9609	88.3645	84.9609	88.406	84.9609	88.2073	84.9609	88.2675	84.9609	87.9993	84.9609	88.0757	84.9609	87.7486	84.9609	87.8374	84.9609	87.466	84.9609	87.5624	84.9609	87.1652	84.9609	87.2632	84.9609	86.8623	84.9609	86.955	84.9609	86.5745	84.9609	86.6548	84.9609	86.3178	84.9609	86.3798	84.9609	86.1048	84.9609	86.1448	84.9609	85.9421	84.9609	85.9598	84.9609	85.8292	84.9609	85.8278	84.9609	85.7591	84.9609	85.7446	84.9609	85.7209	84.9609	85.7008	84.9609	85.7023	84.9609	85.684	84.9609	85.693	84.9609	85.6823	84.9609	85.6867
87.8906	88.6563	87.8906	88.6209	87.8906	88.6293	87.8906	88.5243	87.8906	88.5409	87.8906	88.3701	87.8906	88.3945	87.8906	88.1644	87.8906	88.1958	87.8906	87.9163	87.8906	87.9534	87.8906	87.6382	87.8906	87.6792	87.8906	87.3459	87.8906	87.3881	87.8906	87.0576	87.8906	87.0977	87.8906	86.7924	87.8906	86.8268	87.8906	86.5677	87.8906	86.5931	87.8906	86.3955	87.8906	86.4099	87.8906	86.2803	87.8906	86.2833	87.8906	86.2177	87.8906	86.2111	87.8906	86.1965	87.8906	86.1837	87.8906	86.2013	87.8906	86.1866	87.8906	86.2165	87.8906	86.204	87.8906	86.2295	87.8906	86.2223	87.8906	86.2321
90.8203	88.8166	90.8203	88.7721	90.8203	88.7936	90.8203	88.6615	90.8203	88.7039	90.8203	88.4883	90.8203	88.5504	90.8203	88.2589	90.8203	88.3385	90.8203	87.9826	90.8203	88.0764	90.8203	87.6723	90.8203	87.7756	90.8203	87.3447	90.8203	87.4516	90.8203	87.0197	90.8203	87.1228	90.8203	86.7188	90.8203	86.8104	90.8203	86.4621	90.8203	86.535	90.8203	86.2642	90.8203	86.3137	90.8203	86.1309	90.8203	86.1559	90.8203	86.0579	90.8203	86.0615	90.8203	86.0323	90.8203	86.0209	90.8203	86.0364	90.8203	86.0181	90.8203	86.0524	90.8203	86.035	90.8203	86.0656	90.8203	86.0552	90.8203	86.0671
95.2148	88.6729	95.2148	88.6291	95.2148	88.6432	95.2148	88.513	95.2148	88.541	95.2148	88.328	95.2148	88.3695	95.2148	88.0804	95.2148	88.1344	95.2148	87.7798	95.2148	87.8447	95.2148	87.4398	95.2148	87.513	95.2148	87.0786	95.2148	87.1564	95.2148	86.7186	95.2148	86.7963	95.2148	86.385	95.2148	86.4568	95.2148	86.102	95.2148	86.1622	95.2148	85.888	95.2148	85.9322	95.2148	85.7507	95.2148	85.7771	95.2148	85.6852	95.2148	85.6952	95.2148	85.6754	95.2148	85.673	95.2148	85.6991	95.2148	85.6901	95.2148	85.7336	95.2148	85.7237	95.2148	85.7605	95.2148	85.7543	95.2148	85.7684
98.1445	88.4612	98.1445	88.4141	98.1445	88.4287	98.1445	88.2884	98.1445	88.3174	98.1445	88.0877	98.1445	88.1301	98.1445	87.818	98.1445	87.8725	98.1445	87.489	98.1445	87.5533	98.1445	87.1147	98.1445	87.1856	98.1445	86.7144	98.1445	86.7872	98.1445	86.3127	98.1445	86.3816	98.1445	85.938	98.1445	85.9964	98.1445	85.6186	98.1445	85.6602	98.1445	85.3768	98.1445	85.3976	98.1445	85.2228	98.1445	85.2222	98.1445	85.1513	98.1445	85.1327	98.1445	85.1434	98.1445	85.1138	98.1445	85.1729	98.1445	85.1408	98.1445	85.2132	98.1445	85.1867	98.1445	85.243	98.1445	85.2281	98.1445	85.249
101.074	88.232	101.074	88.1775	101.074	88.2003	101.074	88.0376	101.074	88.0826	101.074	87.8153	101.074	87.8814	101.074	87.5158	101.074	87.601	101.074	87.1478	101.074	87.2488	101.074	86.7243	101.074	86.8365	101.074	86.2646	101.074	86.381	101.074	85.7945	101.074	85.9062	101.074	85.3462	101.074	85.4427	101.074	84.9545	101.074	85.025	101.074	84.6495	101.074	84.6863	101.074	84.4479	101.074	84.449	101.074	84.347	101.074	84.3178	101.074	84.326	101.074	84.2779	101.074	84.3531	101.074	84.3003	101.074	84.3952	101.074	84.3514	101.074	84.4258	101.074	84.4012	101.074	84.4289
105.469	88.627	105.469	88.5772	105.469	88.587	105.469	88.4376	105.469	88.4578	105.469	88.2088	105.469	88.2409	105.469	87.8928	105.469	87.939	105.469	87.4932	105.469	87.5566	105.469	87.0165	105.469	87.1005	105.469	86.4734	105.469	86.582	105.469	85.8811	105.469	86.0176	105.469	85.2652	105.469	85.431	105.469	84.6604	105.469	84.8528	105.469	84.1082	105.469	84.319	105.469	83.6492	105.469	83.8643	105.469	83.3115	105.469	83.5135	105.469	83.1	105.469	83.2727	105.469	82.9952	105.469	83.1279	105.469	82.9632	105.469	83.0515	105.469	82.969	105.469	83.0127	105.469	82.9882
108.398	89.2411	108.398	89.2014	108.398	89.2033	108.398	89.0847	108.398	89.0878	108.398	88.8925	108.398	88.8955	108.398	88.6268	108.398	88.628	108.398	88.2913	108.398	88.2884	108.398	87.891	108.398	87.8819	108.398	87.4337	108.398	87.4165	108.398	86.9306	108.398	86.9043	108.398	86.3971	108.398	86.3622	108.398	85.8536	108.398	85.8128	108.398	85.3254	108.398	85.2831	108.398	84.8396	108.398	84.8016	108.398	84.4217	108.398	84.3929	108.398	84.0892	108.398	84.0721	108.398	83.8479	108.398	83.8413	108.398	83.6917	108.398	83.6915	108.398	83.6073	108.398	83.6088	108.398	83.5818
112.793	89.663	112.793	89.6222	112.793	89.6359	112.793	89.5145	112.793	89.5412	112.793	89.3433	112.793	89.3809	112.793	89.1135	112.793	89.1592	112.793	88.8324	112.793	88.8822	112.793	88.5102	112.793	88.5585	112.793	88.1593	112.793	88.1995	112.793	87.7951	112.793	87.8199	112.793	87.4348	112.793	87.4369	112.793	87.0959	112.793	87.0697	112.793	86.7941	112.793	86.7374	112.793	86.5405	112.793	86.4565	112.793	86.34	112.793	86.2371	112.793	86.1904	112.793	86.0818	112.793	86.0843	112.793	85.9852	112.793	86.0117	112.793	85.9364	112.793	85.9634	112.793	85.9228	112.793	85.9338
117.188	89.3697	117.188	89.323	117.188	89.3407	117.188	89.2019	117.188	89.2366	117.188	89.0098	117.188	89.0603	117.188	88.7525	117.188	88.8168	117.188	88.4388	117.188	88.5139	117.188	88.0808	117.188	88.1628	117.188	87.6945	117.188	87.7781	117.188	87.2995	117.188	87.3788	117.188	86.9184	117.188	86.9867	117.188	86.574	117.188	86.6252	117.188	86.2856	117.188	86.3155	117.188	86.0653	117.188	86.0729	117.188	85.9143	117.188	85.9027	117.188	85.824	117.188	85.7996	117.188	85.7784	117.188	85.7497	117.188	85.7595	117.188	85.7348	117.188	85.7517	117.188	85.7376	117.188	85.7452
120.117	89.4077	120.117	89.3576	120.117	89.3776	120.117	89.2287	120.117	89.2674	120.117	89.0249	120.117	89.08	120.117	88.7529	120.117	88.8205	120.117	88.4221	120.117	88.4973	120.117	88.046	120.117	88.1228	120.117	87.6423	120.117	87.714	120.117	87.2333	120.117	87.2927	120.117	86.8442	120.117	86.8849	120.117	86.5007	120.117	86.5183	120.117	86.224	120.117	86.2173	120.117	86.0257	120.117	85.9974	120.117	85.9048	120.117	85.8613	120.117	85.8481	120.117	85.7982	120.117	85.8348	120.117	85.7876	120.117	85.8419	120.117	85.8057	120.117	85.8503	120.117	85.8306	120.117	85.8476
124.512	89.826	124.512	89.7692	124.512	89.8007	124.512	89.6314	124.512	89.6933	124.512	89.4158	124.512	89.5059	124.512	89.1275	124.512	89.2423	124.512	88.7746	124.512	88.9088	124.512	88.3688	124.512	88.5148	124.512	87.9261	124.512	88.0741	124.512	87.4679	124.512	87.6056	124.512	87.0196	124.512	87.1337	124.512	86.6093	124.512	86.6873	124.512	86.2623	124.512	86.296	124.512	85.9961	124.512	85.9845	124.512	85.8148	124.512	85.7657	124.512	85.7085	124.512	85.6371	124.512	85.657	124.512	85.5818	124.512	85.636	124.512	85.5747	124.512	85.6248	124.512	85.5906	124.512	85.6104
128.906	89.8114	128.906	89.756	128.906	89.7908	128.906	89.6258	128.906	89.6951	128.906	89.4243	128.906	89.5273	128.906	89.1578	128.906	89.2928	128.906	88.8357	128.906	88.9999	128.906	88.471	128.906	88.6599	128.906	88.0812	128.906	88.2878	128.906	87.6876	128.906	87.9024	128.906	87.3144	128.906	87.5255	128.906	86.9855	128.906	87.1801	128.906	86.7204	128.906	86.8868	128.906	86.5295	128.906	86.6603	128.906	86.4116	128.906	86.505	128.906	86.3549	128.906	86.4146	128.906	86.3405	128.906	86.3742	128.906	86.3481	128.906	86.3644	128.906	86.3606	128.906	86.3668	128.906	86.3676
133.301	89.6267	133.301	89.5727	133.301	89.5976	133.301	89.4369	133.301	89.4864	133.301	89.2235	133.301	89.297	133.301	88.9399	133.301	89.0363	133.301	88.5974	133.301	88.715	133.301	88.2122	133.301	88.3486	133.301	87.8063	133.301	87.9576	133.301	87.4071	133.301	87.568	133.301	87.0457	133.301	87.2092	133.301	86.7518	133.301	86.9098	133.301	86.5471	133.301	86.6918	133.301	86.439	133.301	86.5641	133.301	86.4178	133.301	86.5199	133.301	86.4602	133.301	86.5386	133.301	86.5362	133.301	86.5923	133.301	86.6165	133.301	86.6524	133.301	86.6778	133.301	86.6953	133.301	86.7056
139.16	89.515	139.16	89.4615	139.16	89.4772	139.16	89.3186	139.16	89.3488	139.16	89.0905	139.16	89.1323	139.16	88.7844	139.16	88.8335	139.16	88.4112	139.16	88.4614	139.16	87.9872	139.16	88.0304	139.16	87.5346	139.16	87.561	139.16	87.0824	139.16	87.0815	139.16	86.6648	139.16	86.6273	139.16	86.3164	139.16	86.2375	139.16	86.0644	139.16	85.9464	139.16	85.9201	139.16	85.7737	139.16	85.8745	139.16	85.7165	139.16	85.9013	139.16	85.7505	139.16	85.9652	139.16	85.8384	139.16	86.0317	139.16	85.941	139.16	86.0732	139.16	86.0261	139.16	86.0729
143.555	89.2066	143.555	89.1403	143.555	89.1812	143.555	88.984	143.555	89.0646	143.555	88.742	143.555	88.8599	143.555	88.4219	143.555	88.5727	143.555	88.0357	143.555	88.2124	143.555	87.6005	143.555	87.7933	143.555	87.1406	143.555	87.3354	143.555	86.6868	143.555	86.8663	143.555	86.2752	143.555	86.4203	143.555	85.9413	143.555	86.035	143.555	85.7112	143.555	85.7441	143.555	85.5927	143.555	85.5672	143.555	85.5729	143.555	85.5031	143.555	85.6218	143.555	85.5292	143.555	85.7024	143.555	85.61	143.555	85.78	143.555	85.7073	143.555	85.8283	143.555	85.7886	143.555	85.8322
147.949	89.0318	147.949	88.9564	147.949	89.0093	147.949	88.7845	147.949	88.8898	147.949	88.521	147.949	88.6771	147.949	88.174	147.949	88.3781	147.949	87.7569	147.949	88.0039	147.949	87.2899	147.949	87.5707	147.949	86.8013	147.949	87.1021	147.949	86.3285	147.949	86.6293	147.949	85.9146	147.949	86.1908	147.949	85.6011	147.949	85.8275	147.949	85.4155	147.949	85.5735	147.949	85.3611	147.949	85.4452	147.949	85.4146	147.949	85.4344	147.949	85.5353	147.949	85.511	147.949	85.6778	147.949	85.6335	147.949	85.8026	147.949	85.7601	147.949	85.8819	147.949	85.8567	147.949	85.9007
153.809	89.3284	153.809	89.2591	153.809	89.2885	153.809	89.0817	153.809	89.1408	153.809	88.8	153.809	88.8889	153.809	88.4211	153.809	88.54	153.809	87.9572	153.809	88.1057	153.809	87.4276	153.809	87.6042	153.809	86.8616	153.809	87.0627	153.809	86.3008	153.809	86.5191	153.809	85.7979	153.809	86.0218	153.809	85.4089	153.809	85.6228	153.809	85.1768	153.809	85.3644	153.809	85.1137	153.809	85.2628	153.809	85.1938	153.809	85.3005	153.809	85.3645	153.809	85.4331	153.809	85.566	153.809	85.6052	153.809	85.7465	153.809	85.7662	153.809	85.8696	153.809	85.8773	153.809	85.9148
159.668	89.6848	159.668	89.6098	159.668	89.6419	159.668	89.4179	159.668	89.4815	159.668	89.1126	159.668	89.2066	159.668	88.7006	159.668	88.8225	159.668	88.1933	159.668	88.3391	159.668	87.6098	159.668	87.7724	159.668	86.9802	159.668	87.1491	159.668	86.3495	159.668	86.5096	159.668	85.7779	159.668	85.9106	159.668	85.3327	159.668	85.42	159.668	85.0679	159.668	85.0993	159.668	85.0001	159.668	84.9781	159.668	85.0985	159.668	85.0378	159.668	85.2987	159.668	85.2204	159.668	85.529	159.668	85.4528	159.668	85.7291	159.668	85.6703	159.668	85.8575	159.668	85.8258	159.668	85.8917
165.527	89.886	165.527	89.8192	165.527	89.832	165.527	89.6323	165.527	89.6577	165.527	89.3277	165.527	89.3652	165.527	88.9101	165.527	88.9584	165.527	88.3876	165.527	88.4445	165.527	87.7749	165.527	87.8357	165.527	87.0958	165.527	87.1531	165.527	86.3886	165.527	86.4309	165.527	85.7093	165.527	85.7213	165.527	85.1286	165.527	85.095	165.527	84.7165	165.527	84.6288	165.527	84.5138	165.527	84.3778	165.527	84.5099	165.527	84.3461	165.527	84.6462	165.527	84.4816	165.527	84.8436	165.527	84.7021	165.527	85.029	165.527	84.9271	165.527	85.1495	165.527	85.0965	165.527	85.1748
171.387	89.7518	171.387	89.675	171.387	89.7071	171.387	89.4783	171.387	89.5408	171.387	89.1648	171.387	89.2544	171.387	88.7406	171.387	88.8517	171.387	88.2157	171.387	88.3398	171.387	87.6069	171.387	87.7318	171.387	86.9417	171.387	87.05	171.387	86.2625	171.387	86.3308	171.387	85.6285	171.387	85.629	171.387	85.1102	171.387	85.0172	171.387	84.7692	171.387	84.5716	171.387	84.6319	171.387	84.3441	171.387	84.6731	171.387	84.3345	171.387	84.8282	171.387	84.4892	171.387	85.0207	171.387	84.7275	171.387	85.1852	171.387	84.9722	171.387	85.2768	171.387	85.1653	171.387	85.2716
177.246	89.709	177.246	89.6107	177.246	89.6842	177.246	89.3897	177.246	89.5367	177.246	89.0477	177.246	89.2682	177.246	88.5882	177.246	88.8816	177.246	88.0184	177.246	88.3828	177.246	87.3516	177.246	87.7823	177.246	86.6125	177.246	87.0984	177.246	85.8436	177.246	86.363	177.246	85.1115	177.246	85.6272	177.246	84.5047	177.246	84.9639	177.246	84.1104	177.246	84.458	177.246	83.9736	177.246	84.1768	177.246	84.0672	177.246	84.1338	177.246	84.3064	177.246	84.2776	177.246	84.591	177.246	84.5185	177.246	84.8387	177.246	84.7664	177.246	84.9956	177.246	84.9525	177.246	85.0349
183.105	88.9763	183.105	88.8894	183.105	88.9406	183.105	88.6809	183.105	88.7832	183.105	88.3532	183.105	88.5064	183.105	87.9115	183.105	88.1153	183.105	87.3646	183.105	87.6181	183.105	86.7284	183.105	87.0292	183.105	86.0296	183.105	86.3719	183.105	85.3124	183.105	85.6834	183.105	84.6421	183.105	85.0191	183.105	84.1009	183.105	84.4503	183.105	83.7648	183.105	84.05	183.105	83.6676	183.105	83.864	183.105	83.7789	183.105	83.8854	183.105	84.0196	183.105	84.0563	183.105	84.2991	183.105	84.2949	183.105	84.5429	183.105	84.5245	183.105	84.7024	183.105	84.6885	183.105	84.7525
188.965	89.2038	188.965	89.1129	188.965	89.1541	188.965	88.8815	188.965	88.9645	188.965	88.5114	188.965	88.6368	188.965	88.0059	188.965	88.1751	188.965	87.3727	188.965	87.5871	188.965	86.6276	188.965	86.8877	188.965	85.8016	188.965	86.1052	188.965	84.9524	188.965	85.2898	188.965	84.1753	188.965	84.5236	188.965	83.598	188.965	83.9181	188.965	83.3352	188.965	83.5828	188.965	83.4163	188.965	83.565	188.965	83.7587	188.965	83.8145	188.965	84.2231	188.965	84.215	188.965	84.6826	188.965	84.6442	188.965	85.0513	188.965	85.0105	188.965	85.2812	188.965	85.2563	188.965	85.3507
196.289	90.1635	196.289	90.0784	196.289	90.1003	196.289	89.845	196.289	89.8883	196.289	89.4622	196.289	89.526	196.289	88.9287	196.289	89.0116	196.289	88.2434	196.289	88.3435	196.289	87.408	196.289	87.5229	196.289	86.433	196.289	86.5586	196.289	85.3497	196.289	85.4791	196.289	84.2337	196.289	84.3549	196.289	83.2337	196.289	83.3287	196.289	82.567	196.289	82.6173	196.289	82.4077	196.289	82.4085	196.289	82.7282	196.289	82.6946	196.289	83.3175	196.289	83.2712	196.289	83.9475	196.289	83.9043	196.289	84.467	196.289	84.4351	196.289	84.7976	196.289	84.7809	196.289	84.9052
203.613	89.7819	203.613	89.694	203.613	89.7337	203.613	89.4703	203.613	89.549	203.613	89.11	203.613	89.2263	203.613	88.6125	203.613	88.7634	203.613	87.9767	203.613	88.1573	203.613	87.2033	203.613	87.4044	203.613	86.297	203.613	86.5032	203.613	85.2735	203.613	85.4586	203.613	84.1721	203.613	84.2938	203.613	83.0756	203.613	83.0729	203.613	82.126	203.613	81.9331	203.613	81.498	203.613	81.0913	203.613	81.2962	203.613	80.7453	203.613	81.4595	203.613	80.8967	203.613	81.8054	203.613	81.3386	203.613	82.1493	203.613	81.829	203.613	82.3668	203.613	82.2063	203.613	82.3926
210.938	90.254	210.938	90.1453	210.938	90.2297	210.938	89.9033	210.938	90.0726	210.938	89.5277	210.938	89.7832	210.938	89.0182	210.938	89.3616	210.938	88.3749	210.938	88.8081	210.938	87.5997	210.938	88.1233	210.938	86.7	210.938	87.3102	210.938	85.6966	210.938	86.3785	210.938	84.6382	210.938	85.3537	210.938	83.6213	210.938	84.2933	210.938	82.7977	210.938	83.3075	210.938	82.3279	210.938	82.5586	210.938	82.2715	210.938	82.1966	210.938	82.5275	210.938	82.2442	210.938	82.9101	210.938	82.5661	210.938	83.2552	210.938	82.9699	210.938	83.4606	210.938	83.3033	210.938	83.4786
218.262	91.305	218.262	91.2125	218.262	91.2613	218.262	90.9831	218.262	91.0829	218.262	90.6164	218.262	90.7718	218.262	90.1121	218.262	90.3309	218.262	89.47	218.262	89.7636	218.262	88.6905	218.262	89.0743	218.262	87.7772	218.262	88.2701	218.262	86.7437	218.262	87.3635	218.262	85.6275	218.262	86.3814	218.262	84.5142	218.262	85.3776	218.262	83.5591	218.262	84.4487	218.262	82.9595	218.262	83.7326	218.262	82.83	218.262	83.3568	218.262	83.0888	218.262	83.3461	218.262	83.5242	218.262	83.5905	218.262	83.9394	218.262	83.9189	218.262	84.2144	218.262	84.1849	218.262	84.2971
225.586	92.0593	225.586	91.9913	225.586	91.9865	225.586	91.7818	225.586	91.7741	225.586	91.4313	225.586	91.4246	225.586	90.9407	225.586	90.9414	225.586	90.312	225.586	90.3293	225.586	89.5484	225.586	89.5954	225.586	88.6571	225.586	88.752	225.586	87.6545	225.586	87.8214	225.586	86.5789	225.586	86.8457	225.586	85.5107	225.586	85.8996	225.586	84.5918	225.586	85.0974	225.586	84.0039	225.586	84.569	225.586	83.8616	225.586	84.3901	225.586	84.105	225.586	84.5195	225.586	84.5416	225.586	84.8207	225.586	84.9791	225.586	85.1412	225.586	85.2932	225.586	85.3655	225.586	85.4255
232.91	92.1887	232.91	92.124	232.91	92.1149	232.91	91.9212	232.91	91.9028	232.91	91.5805	232.91	91.5525	232.91	91.1021	232.91	91.0642	232.91	90.4862	232.91	90.4379	232.91	89.7334	232.91	89.6744	232.91	88.8463	232.91	88.7766	232.91	87.834	232.91	87.7539	232.91	86.7222	232.91	86.6335	232.91	85.572	232.91	85.4805	232.91	84.5066	232.91	84.4252	232.91	83.7159	232.91	83.6648	232.91	83.3766	232.91	83.3701	232.91	83.5008	232.91	83.533	232.91	83.9083	232.91	83.9571	232.91	84.3663	232.91	84.41	232.91	84.7054	232.91	84.7302	232.91	84.8361
241.699	91.8845	241.699	91.7862	241.699	91.8397	241.699	91.5477	241.699	91.6498	241.699	91.1731	241.699	91.3144	241.699	90.6674	241.699	90.8338	241.699	90.0372	241.699	90.2104	241.699	89.2911	241.699	89.4489	241.699	88.4429	241.699	88.5598	241.699	87.5171	241.699	87.5648	241.699	86.5591	241.699	86.5079	241.699	85.6486	241.699	85.4721	241.699	84.9027	241.699	84.589	241.699	84.442	241.699	84.0124	241.699	84.3177	241.699	83.8323	241.699	84.4646	241.699	83.9984	241.699	84.742	241.699	84.3551	241.699	85.0116	241.699	84.7397	241.699	85.1782	241.699	85.0388	241.699	85.1917
250.488	91.6604	250.488	91.5452	250.488	91.6342	250.488	91.2893	250.488	91.4672	250.488	90.8944	250.488	91.1611	250.488	90.3638	250.488	90.7186	250.488	89.7026	250.488	90.1434	250.488	88.9197	250.488	89.4408	250.488	88.0319	250.488	88.6191	250.488	87.071	250.488	87.694	250.488	86.0965	250.488	86.6981	250.488	85.2089	250.488	85.6959	250.488	84.5453	250.488	84.8015	250.488	84.2277	250.488	84.1719	250.488	84.2777	250.488	83.9371	250.488	84.5875	250.488	84.0957	250.488	84.9898	250.488	84.5016	250.488	85.3383	250.488	84.9649	250.488	85.5377	250.488	85.3391	250.488	85.5407
259.277	92.4937	259.277	92.3798	259.277	92.4373	259.277	92.0947	259.277	92.2106	259.277	91.6364	259.277	91.813	259.277	91.0011	259.277	91.2434	259.277	90.1828	259.277	90.5003	259.277	89.1747	259.277	89.5834	259.277	87.9732	259.277	88.4986	259.277	86.5945	259.277	87.2708	259.277	85.1176	259.277	85.9734	259.277	83.7725	259.277	84.7796	259.277	82.9916	259.277	83.9858	259.277	83.1199	259.277	83.8607	259.277	83.9665	259.277	84.3663	259.277	85.0454	259.277	85.1898	259.277	86.0198	259.277	86.0288	259.277	86.7463	259.277	86.7086	259.277	87.1792	259.277	87.1481	259.277	87.3108
268.066	92.1879	268.066	92.0988	268.066	92.1323	268.066	91.8663	268.066	91.931	268.066	91.4919	268.066	91.5833	268.066	90.976	268.066	91.0881	268.066	90.3165	268.066	90.4428	268.066	89.507	268.066	89.6426	268.066	88.5356	268.066	88.6796	268.066	87.3865	268.066	87.5445	268.066	86.0498	268.066	86.2337	268.066	84.549	268.066	84.7713	268.066	83.0093	268.066	83.2624	268.066	81.7595	268.066	81.9781	268.066	81.2597	268.066	81.3334	268.066	81.6149	268.066	81.5162	268.066	82.3983	268.066	82.2159	268.066	83.1517	268.066	82.983	268.066	83.6379	268.066	83.5412	268.066	83.772
276.855	91.6112	276.855	91.5126	276.855	91.5598	276.855	91.2643	276.855	91.359	276.855	90.8668	276.855	91.0097	276.855	90.3213	276.855	90.5131	276.855	89.6296	276.855	89.8699	276.855	88.7946	276.855	89.0801	276.855	87.8223	276.855	88.145	276.855	86.7256	276.855	87.0716	276.855	85.5356	276.855	85.8853	276.855	84.325	276.855	84.6562	276.855	83.2445	276.855	83.5378	276.855	82.5285	276.855	82.7737	276.855	82.3719	276.855	82.5697	276.855	82.7314	276.855	82.8862	276.855	83.346	276.855	83.4604	276.855	83.9471	276.855	84.0222	276.855	84.3667	276.855	84.4038	276.855	84.5262
287.109	92.4154	287.109	92.2943	287.109	92.3618	287.109	91.9986	287.109	92.1345	287.109	91.5294	287.109	91.7353	287.109	90.8882	287.109	91.1658	287.109	90.0759	287.109	90.4266	287.109	89.0923	287.109	89.5154	287.109	87.9369	287.109	88.4259	287.109	86.6169	287.109	87.1508	287.109	85.1707	287.109	85.6979	287.109	83.7312	287.109	84.1412	287.109	82.6214	287.109	82.7394	287.109	82.2923	287.109	82.0116	287.109	82.8573	287.109	82.3288	287.109	83.9001	287.109	83.3624	287.109	84.9544	287.109	84.5265	287.109	85.7704	287.109	85.4827	287.109	86.2511	287.109	86.1076	287.109	86.3658
297.363	92.0802	297.363	91.9637	297.363	92.0256	297.363	91.6779	297.363	91.799	297.363	91.2246	297.363	91.4	297.363	90.6047	297.363	90.829	297.363	89.8165	297.363	90.0856	297.363	88.8545	297.363	89.1689	297.363	87.7095	297.363	88.0777	297.363	86.3746	297.363	86.8148	297.363	84.8666	297.363	85.4	297.363	83.2865	297.363	83.9067	297.363	81.9328	297.363	82.5339	297.363	81.3091	297.363	81.657	297.363	81.6596	297.363	81.6159	297.363	82.6027	297.363	82.3005	297.363	83.6189	297.363	83.263	297.363	84.4193	297.363	84.1376	297.363	84.892	297.363	84.7413	297.363	85.0006
307.617	92.7264	307.617	92.6126	307.617	92.6735	307.617	92.3328	307.617	92.4524	307.617	91.8858	307.617	92.0607	307.617	91.2682	307.617	91.4945	307.617	90.4728	307.617	90.7466	307.617	89.4868	307.617	89.8043	307.617	88.2891	307.617	88.6461	307.617	86.848	307.617	87.2381	307.617	85.1206	307.617	85.5324	307.617	83.0744	307.617	83.4835	307.617	80.8036	307.617	81.1436	307.617	78.9198	307.617	79.0354	307.617	78.6801	307.617	78.4936	307.617	80.0515	307.617	79.7823	307.617	81.7128	307.617	81.5022	307.617	82.9952	307.617	82.8612	307.617	83.7568	307.617	83.6925	307.617	83.9884
319.336	91.9796	319.336	91.854	319.336	91.946	319.336	91.5684	319.336	91.7549	319.336	91.1225	319.336	91.4089	319.336	90.5157	319.336	90.9097	319.336	89.7449	319.336	90.257	319.336	88.8031	319.336	89.4459	319.336	87.6778	319.336	88.4651	319.336	86.3522	319.336	87.2957	319.336	84.8154	319.336	85.9146	319.336	83.0989	319.336	84.3093	319.336	81.3806	319.336	82.5313	319.336	80.1436	319.336	80.8363	319.336	79.9737	319.336	79.8327	319.336	80.7626	319.336	80.0236	319.336	81.8337	319.336	81.0165	319.336	82.7107	319.336	82.0985	319.336	83.208	319.336	82.8913	319.336	83.2708
329.59	92.4087	329.59	92.309	329.59	92.3477	329.59	92.0477	329.59	92.1282	329.59	91.6247	329.59	91.7534	329.59	91.0393	329.59	91.2262	329.59	90.2879	329.59	90.5479	329.59	89.3614	329.59	89.7159	329.59	88.2423	329.59	88.7222	329.59	86.9062	329.59	87.5547	329.59	85.3307	329.59	86.203	329.59	83.5335	329.59	84.6819	329.59	81.69	329.59	83.0964	329.59	80.3499	329.59	81.7632	329.59	80.2408	329.59	81.2073	329.59	81.231	329.59	81.6366	329.59	82.5105	329.59	82.5981	329.59	83.5647	329.59	83.5451	329.59	84.2177	329.59	84.1904	329.59	84.4259
341.309	93.2659	341.309	93.1576	341.309	93.1983	341.309	92.8741	341.309	92.9555	341.309	92.4175	341.309	92.5398	341.309	91.7888	341.309	91.9538	341.309	90.9856	341.309	91.1977	341.309	89.9972	341.309	90.2652	341.309	88.7986	341.309	89.1373	341.309	87.3436	341.309	87.7761	341.309	85.5618	341.309	86.1216	341.309	83.3895	341.309	84.1117	341.309	80.9672	341.309	81.81	341.309	79.3283	341.309	79.8999	341.309	80.038	341.309	79.9101	341.309	82.1007	341.309	81.6644	341.309	83.9979	341.309	83.5881	341.309	85.3311	341.309	85.0421	341.309	86.0813	341.309	85.9345	341.309	86.2779
353.027	93.5348	353.027	93.4198	353.027	93.4763	353.027	93.1331	353.027	93.243	353.027	92.6758	353.027	92.8335	353.027	92.0469	353.027	92.2455	353.027	91.2413	353.027	91.4741	353.027	90.2459	353.027	90.5079	353.027	89.0336	353.027	89.3244	353.027	87.5516	353.027	87.8799	353.027	85.7037	353.027	86.0949	353.027	83.3274	353.027	83.8323	353.027	80.2374	353.027	80.921	353.027	77.0299	353.027	77.6922	353.027	77.3599	353.027	77.164	353.027	80.5785	353.027	80.0925	353.027	83.2915	353.027	82.9147	353.027	85.0791	353.027	84.8416	353.027	86.069	353.027	85.9557	353.027	86.3529
366.211	93.5233	366.211	93.3995	366.211	93.5069	366.211	93.1357	366.211	93.351	366.211	92.7331	366.211	93.0572	366.211	92.1909	366.211	92.6258	366.211	91.504	366.211	92.0534	366.211	90.6585	366.211	91.3291	366.211	89.6256	366.211	90.4297	366.211	88.3519	366.211	89.311	366.211	86.74	366.211	87.8944	366.211	84.6077	366.211	86.039	366.211	81.5818	366.211	83.4781	366.211	76.7421	366.211	79.6239	366.211	68.299	366.211	72.8371	366.211	73.5277	366.211	69.2727	366.211	79.0847	366.211	76.9945	366.211	81.8977	366.211	80.8223	366.211	83.2405	366.211	82.762	366.211	83.5059
379.395	92.4062	379.395	92.3315	379.395	92.3273	379.395	92.1086	379.395	92.0969	379.395	91.7473	379.395	91.7247	379.395	91.2597	379.395	91.2271	379.395	90.6555	379.395	90.623	379.395	89.9377	379.395	89.9262	379.395	89.0959	379.395	89.137	379.395	88.0995	379.395	88.2339	379.395	86.8909	379.395	87.1686	379.395	85.3813	379.395	85.8642	379.395	83.444	379.395	84.2152	379.395	80.9064	379.395	82.0904	379.395	77.5886	379.395	79.3699	379.395	73.8806	379.395	76.231	379.395	72.7717	379.395	74.208	379.395	74.74	379.395	74.9013	379.395	76.3727	379.395	76.2877	379.395	76.8778
392.578	92.7096	392.578	92.6319	392.578	92.6662	392.578	92.4357	392.578	92.4976	392.578	92.1213	392.578	92.199	392.578	91.686	392.578	91.7661	392.578	91.1232	392.578	91.1958	392.578	90.4216	392.578	90.4851	392.578	89.5609	392.578	89.628	392.578	88.5064	392.578	88.6086	392.578	87.1978	392.578	87.3911	392.578	85.5342	392.578	85.9081	392.578	83.3552	392.578	84.0491	392.578	80.4402	392.578	81.6562	392.578	76.7941	392.578	78.619	392.578	74.6685	392.578	75.6686	392.578	76.6392	392.578	75.6523	392.578	78.9944	392.578	77.8945	392.578	80.2784	392.578	79.6911	392.578	80.493
405.762	91.9521	405.762	91.8876	405.762	91.9225	405.762	91.7353	405.762	91.7952	405.762	91.4999	405.762	91.5697	405.762	91.1808	405.762	91.2468	405.762	90.7674	405.762	90.8242	405.762	90.2389	405.762	90.292	405.762	89.5665	405.762	89.6292	405.762	88.7165	405.762	88.8034	405.762	87.6512	405.762	87.7721	405.762	86.3227	405.762	86.4833	405.762	84.6597	405.762	84.8704	405.762	82.5542	405.762	82.8431	405.762	79.8787	405.762	80.3055	405.762	76.7184	405.762	77.3579	405.762	74.3797	405.762	75.0851	405.762	74.761	405.762	75.1312	405.762	76.0889	405.762	76.2079	405.762	76.6608
420.41	92.0424	420.41	91.9029	420.41	91.9923	420.41	91.5842	420.41	91.755	420.41	91.11	420.41	91.3446	420.41	90.5154	420.41	90.7831	420.41	89.844	420.41	90.0953	420.41	89.141	420.41	89.3045	420.41	88.4369	420.41	88.4318	420.41	87.7258	420.41	87.4961	420.41	86.9538	420.41	86.51	420.41	86.0317	420.41	85.4684	420.41	84.8717	420.41	84.3462	420.41	83.4444	420.41	83.1321	420.41	81.88	420.41	81.9219	420.41	80.6101	420.41	81.0155	420.41	80.2017	420.41	80.7543	420.41	80.6156	420.41	81.0541	420.41	81.2204	420.41	81.4442	420.41	81.542
435.059	92.7347	435.059	92.5441	435.059	92.7181	435.059	92.157	435.059	92.494	435.059	91.5943	435.059	92.0715	435.059	90.885	435.059	91.469	435.059	90.063	435.059	90.7126	435.059	89.1618	435.059	89.8331	435.059	88.207	435.059	88.8586	435.059	87.2106	435.059	87.8017	435.059	86.1652	435.059	86.6464	435.059	85.0409	435.059	85.3465	435.059	83.7907	435.059	83.8492	435.059	82.3939	435.059	82.1665	435.059	80.9976	435.059	80.5397	435.059	80.1115	435.059	79.6093	435.059	80.2551	435.059	79.8786	435.059	81.0799	435.059	80.8431	435.059	81.8229	435.059	81.7052	435.059	82.0657
451.172	94.1047	451.172	93.996	451.172	94.0247	451.172	93.7041	451.172	93.7535	451.172	93.2346	451.172	93.2918	451.172	92.5913	451.172	92.6426	451.172	91.7734	451.172	91.809	451.172	90.7746	451.172	90.7929	451.172	89.5836	451.172	89.5938	451.172	88.1816	451.172	88.2099	451.172	86.5344	451.172	86.6383	451.172	84.5789	451.172	84.8772	451.172	82.2469	451.172	82.9572	451.172	79.7505	451.172	81.1165	451.172	78.571	451.172	80.1792	451.172	80.1117	451.172	80.9524	451.172	82.4654	451.172	82.6678	451.172	84.2681	451.172	84.2418	451.172	85.3113	451.172	85.2608	451.172	85.6283
465.82	92.7073	465.82	92.5645	465.82	92.6798	465.82	92.2614	465.82	92.476	465.82	91.8099	465.82	92.0955	465.82	91.2225	465.82	91.5457	465.82	90.5123	465.82	90.8402	465.82	89.6925	465.82	89.993	465.82	88.771	465.82	89.0092	465.82	87.7375	465.82	87.8707	465.82	86.538	465.82	86.5169	465.82	85.038	465.82	84.8138	465.82	82.9649	465.82	82.4926	465.82	79.7574	465.82	78.9994	465.82	74.007	465.82	73.3356	465.82	68.7538	465.82	72.0275	465.82	76.7328	465.82	77.9594	465.82	80.9898	465.82	81.4762	465.82	83.0741	465.82	83.2559	465.82	83.7602
483.398	92.9408	483.398	92.7898	483.398	92.8884	483.398	92.442	483.398	92.6365	483.398	91.9117	483.398	92.2006	483.398	91.2186	483.398	91.6047	483.398	90.3897	483.398	90.8745	483.398	89.46	483.398	90.0303	483.398	88.4661	483.398	89.0834	483.398	87.4298	483.398	88.0316	483.398	86.3353	483.398	86.8516	483.398	85.1123	483.398	85.4804	483.398	83.6351	483.398	83.788	483.398	81.7322	483.398	81.5409	483.398	79.2573	483.398	78.3671	483.398	76.557	483.398	74.1431	483.398	75.6647	483.398	72.831	483.398	77.2655	483.398	76.1247	483.398	78.8468	483.398	78.4991	483.398	79.3375
499.512	91.8002	499.512	91.7514	499.512	91.7032	499.512	91.5659	499.512	91.4628	499.512	91.2579	499.512	91.0945	499.512	90.8375	499.512	90.6211	499.512	90.3059	499.512	90.0648	499.512	89.6575	499.512	89.4391	499.512	88.8845	499.512	88.7427	499.512	87.9717	499.512	87.9565	499.512	86.8785	499.512	87.0381	499.512	85.5128	499.512	85.9064	499.512	83.6995	499.512	84.4092	499.512	81.121	499.512	82.2603	499.512	77.1185	499.512	78.8765	499.512	70.1084	499.512	72.6578	499.512	68.7432	499.512	63.2303	499.512	75.0256	499.512	73.3307	499.512	77.8133	499.512	77.2583	499.512	78.4765
517.09	91.7613	517.09	91.5742	517.09	91.7334	517.09	91.174	517.09	91.5041	517.09	90.5841	517.09	91.0947	517.09	89.8512	517.09	90.5258	517.09	89.0387	517.09	89.8133	517.09	88.2099	517.09	88.9687	517.09	87.4086	517.09	88.0065	517.09	86.6488	517.09	86.9567	517.09	85.9214	517.09	85.879	517.09	85.2005	517.09	84.8695	517.09	84.4396	517.09	84.0185	517.09	83.5706	517.09	83.3026	517.09	82.5322	517.09	82.5352	517.09	81.3374	517.09	81.508	517.09	80.1606	517.09	80.2365	517.09	79.3069	517.09	79.1315	517.09	78.8924	517.09	78.6662	517.09	78.7025
536.133	93.1539	536.133	93.0458	536.133	93.0442	536.133	92.7224	536.133	92.7115	536.133	92.1811	536.133	92.1555	536.133	91.4199	536.133	91.3893	536.133	90.4501	536.133	90.4443	536.133	89.3109	536.133	89.3685	536.133	88.0746	536.133	88.2157	536.133	86.8236	536.133	87.0236	536.133	85.5915	536.133	85.7842	536.133	84.3132	536.133	84.4213	536.133	82.8659	536.133	82.8099	536.133	81.259	536.133	80.8907	536.133	80.0107	536.133	78.9964	536.133	80.0335	536.133	78.177	536.133	81.0908	536.133	78.9453	536.133	82.1031	536.133	80.3283	536.133	82.5397	536.133	81.5453	536.133	82.3265
555.176	92.2207	555.176	92.0353	555.176	92.2303	555.176	91.6894	555.176	92.066	555.176	91.2061	555.176	91.7466	555.176	90.6024	555.176	91.2949	555.176	89.8785	555.176	90.7197	555.176	89.0133	555.176	90	555.176	87.963	555.176	89.0825	555.176	86.6588	555.176	87.8877	555.176	85.0035	555.176	86.3162	555.176	82.8664	555.176	84.244	555.176	80.0596	555.176	81.5062	555.176	76.2411	555.176	77.8878	555.176	71.0851	555.176	73.5174	555.176	70.4902	555.176	72.0863	555.176	75.526	555.176	75.4406	555.176	78.9088	555.176	78.516	555.176	80.6646	555.176	80.3951	555.176	81.1159
574.219	92.8089	574.219	92.5315	574.219	92.8876	574.219	92.074	574.219	92.7516	574.219	91.4546	574.219	92.389	574.219	90.6872	574.219	91.7958	574.219	89.7837	574.219	90.9839	574.219	88.7616	574.219	89.991	574.219	87.6525	574.219	88.8798	574.219	86.5024	574.219	87.71	574.219	85.3485	574.219	86.4929	574.219	84.1451	574.219	85.1549	574.219	82.6779	574.219	83.5221	574.219	80.5623	574.219	81.2968	574.219	77.4052	574.219	78.0262	574.219	74.1589	574.219	73.8113	574.219	75.3503	574.219	74.0289	574.219	78.3468	574.219	77.6995	574.219	80.1757	574.219	79.9522	574.219	80.7096
594.727	92.3169	594.727	92.2224	594.727	92.2307	594.727	91.9497	594.727	91.9545	594.727	91.4895	594.727	91.486	594.727	90.8227	594.727	90.8419	594.727	89.93	594.727	90.0557	594.727	88.8046	594.727	89.1583	594.727	87.4605	594.727	88.153	594.727	85.9255	594.727	87.0148	594.727	84.2219	594.727	85.7207	594.727	82.3985	594.727	84.2772	594.727	80.6405	594.727	82.6914	594.727	79.23	594.727	80.9134	594.727	78.2138	594.727	78.9446	594.727	77.5549	594.727	77.2491	594.727	77.6141	594.727	76.8011	594.727	78.4076	594.727	77.6194	594.727	79.1571	594.727	78.6798	594.727	79.279
615.234	92.2048	615.234	92.1023	615.234	92.0225	615.234	91.7222	615.234	91.5899	615.234	91.1105	615.234	90.9801	615.234	90.3459	615.234	90.282	615.234	89.5199	615.234	89.5624	615.234	88.6918	615.234	88.8409	615.234	87.8471	615.234	88.0968	615.234	86.9085	615.234	87.286	615.234	85.786	615.234	86.3365	615.234	84.399	615.234	85.1436	615.234	82.6402	615.234	83.596	615.234	80.3069	615.234	81.5945	615.234	76.9773	615.234	78.9611	615.234	71.7486	615.234	75.2507	615.234	66.7194	615.234	70.2326	615.234	71.5235	615.234	69.8473	615.234	74.5799	615.234	73.4581	615.234	75.1072
637.207	92.983	637.207	92.7188	637.207	92.9794	637.207	92.2337	637.207	92.6918	637.207	91.5918	637.207	92.1388	637.207	90.8502	637.207	91.3755	637.207	90.0357	637.207	90.4884	637.207	89.1384	637.207	89.5645	637.207	88.1192	637.207	88.6338	637.207	86.9155	637.207	87.6269	637.207	85.4442	637.207	86.3978	637.207	83.5965	637.207	84.7853	637.207	81.2106	637.207	82.6419	637.207	78.1581	637.207	79.8916	637.207	75.9612	637.207	77.4713	637.207	78.2967	637.207	78.5661	637.207	81.6763	637.207	81.5861	637.207	83.9281	637.207	83.8495	637.207	85.1205	637.207	85.0893	637.207	85.4808
659.18	91.4036	659.18	91.3293	659.18	91.261	659.18	91.0105	659.18	90.9503	659.18	90.4545	659.18	90.5178	659.18	89.704	659.18	89.9832	659.18	88.8208	659.18	89.3309	659.18	87.8565	659.18	88.5236	659.18	86.8305	659.18	87.5307	659.18	85.7273	659.18	86.3523	659.18	84.4863	659.18	85.012	659.18	82.9411	659.18	83.4798	659.18	80.7483	659.18	81.5284	659.18	77.245	659.18	78.5637	659.18	70.3254	659.18	72.945	659.18	59.5201	659.18	41.5538	659.18	74.3355	659.18	73.4091	659.18	79.1983	659.18	78.9518	659.18	81.556	659.18	81.4855	659.18	82.2727
682.617	91.5012	682.617	91.2862	682.617	91.4307	682.617	90.8339	682.617	91.0752	682.617	90.2182	682.617	90.4886	682.617	89.503	682.617	89.771	682.617	88.727	682.617	89.0536	682.617	87.9328	682.617	88.4534	682.617	87.1972	682.617	87.9875	682.617	86.5807	682.617	87.5267	682.617	86.0287	682.617	86.8584	682.617	85.3582	682.617	85.7775	682.617	84.3198	682.617	84.0969	682.617	82.5932	682.617	81.5372	682.617	79.606	682.617	77.3743	682.617	73.8482	682.617	69.5511	682.617	66.9847	682.617	71.5569	682.617	75.6243	682.617	77.712	682.617	79.5259	682.617	80.3148	682.617	80.8472
707.52	90.8167	707.52	90.6058	707.52	90.7635	707.52	90.1272	707.52	90.4413	707.52	89.3963	707.52	89.8557	707.52	88.4852	707.52	89.0604	707.52	87.5204	707.52	88.1488	707.52	86.6237	707.52	87.1807	707.52	85.8501	707.52	86.1385	707.52	85.1938	707.52	85.0092	707.52	84.5985	707.52	83.9077	707.52	83.8999	707.52	83.0047	707.52	82.7896	707.52	82.2374	707.52	80.837	707.52	81.2743	707.52	77.4047	707.52	79.7448	707.52	71.1267	707.52	77.2095	707.52	65.1976	707.52	72.785	707.52	72.1252	707.52	68.2267	707.52	75.2234	707.52	72.7447	707.52	75.4562
732.422	90.746	732.422	90.606	732.422	90.5351	732.422	90.1466	732.422	90.0379	732.422	89.4862	732.422	89.3768	732.422	88.7722	732.422	88.6588	732.422	88.0978	732.422	87.909	732.422	87.4586	732.422	87.0798	732.422	86.7688	732.422	86.1439	732.422	85.9135	732.422	85.1672	732.422	84.8355	732.422	84.2547	732.422	83.6036	732.422	83.4397	732.422	82.3331	732.422	82.6586	732.422	80.9865	732.422	81.6749	732.422	79.2605	732.422	79.9312	732.422	76.6251	732.422	76.6155	732.422	72.9936	732.422	70.9555	732.422	71.6245	732.422	67.7298	732.422	73.0468	732.422	71.2779	732.422	73.185
757.324	90.8322	757.324	90.6672	757.324	90.7657	757.324	90.2687	757.324	90.4952	757.324	89.6782	757.324	90.0393	757.324	88.9485	757.324	89.3856	757.324	88.0995	757.324	88.5257	757.324	87.153	757.324	87.5567	757.324	86.1951	757.324	86.7201	757.324	85.2977	757.324	86.1664	757.324	84.3687	757.324	85.6945	757.324	83.2067	757.324	84.9483	757.324	81.6657	757.324	83.7248	757.324	79.5968	757.324	81.9159	757.324	76.2898	757.324	79.0757	757.324	68.7972	757.324	73.3874	757.324	70.8533	757.324	55.6324	757.324	78.1014	757.324	74.8171	757.324	80.8651	757.324	79.5653	757.324	81.2474
785.156	92.8973	785.156	92.6362	785.156	92.5915	785.156	91.9705	785.156	91.6917	785.156	91.0184	785.156	90.4281	785.156	89.7788	785.156	89.2131	785.156	88.2777	785.156	88.2917	785.156	86.7568	785.156	87.5541	785.156	85.5551	785.156	86.6817	785.156	84.6986	785.156	85.4111	785.156	83.9804	785.156	83.9556	785.156	83.6118	785.156	83.1441	785.156	83.848	785.156	83.3949	785.156	83.7966	785.156	83.6425	785.156	82.1643	785.156	82.3357	785.156	77.8247	785.156	77.5976	785.156	69.3822	785.156	64.9511	785.156	71.8995	785.156	76.2543	785.156	77.1741	785.156	79.6947	785.156	79.618
811.523	92.1135	811.523	91.7873	811.523	92.0193	811.523	90.999	811.523	91.5679	811.523	89.7587	811.523	90.8257	811.523	88.2468	811.523	89.7244	811.523	86.8171	811.523	88.0331	811.523	85.6959	811.523	85.8096	811.523	84.7231	811.523	84.1317	811.523	83.7027	811.523	84.2831	811.523	83.044	811.523	84.9654	811.523	83.2693	811.523	84.443	811.523	83.7652	811.523	82.357	811.523	83.5756	811.523	79.8126	811.523	82.4525	811.523	79.2239	811.523	79.5542	811.523	78.9731	811.523	71.6367	811.523	76.2978	811.523	77.6125	811.523	70.8283	811.523	81.9059	811.523	76.5467	811.523	81.3051
840.82	88.2723	840.82	88.2054	840.82	88.5943	840.82	88.2589	840.82	88.9044	840.82	88.0398	840.82	88.8527	840.82	87.3692	840.82	88.2658	840.82	86.5746	840.82	87.0922	840.82	86.0998	840.82	85.4778	840.82	85.7809	840.82	84.1429	840.82	85.2758	840.82	83.4308	840.82	84.7511	840.82	82.5875	840.82	84.5638	840.82	81.6757	840.82	84.4752	840.82	81.8386	840.82	83.9297	840.82	82.6751	840.82	82.5369	840.82	82.9697	840.82	80.1374	840.82	82.1588	840.82	77.2988	840.82	79.6522	840.82	75.4735	840.82	74.6406	840.82	73.7906	840.82	68.7034	840.82	70.4163
870.117	92.5638	870.117	92.5264	870.117	91.903	870.117	91.7216	870.117	90.8508	870.117	90.2442	870.117	89.7249	870.117	88.2963	870.117	88.6771	870.117	86.2379	870.117	87.779	870.117	84.294	870.117	86.8457	870.117	82.4528	870.117	85.6335	870.117	81.2656	870.117	84.2507	870.117	81.3276	870.117	83.2767	870.117	82.3296	870.117	83.2314	870.117	83.7528	870.117	83.7032	870.117	84.5362	870.117	83.6619	870.117	83.6518	870.117	82.0975	870.117	80.1889	870.117	78.1278	870.117	71.3576	870.117	70.4776	870.117	71.255	870.117	71.7617	870.117	76.9232	870.117	76.2222	870.117	77.7518
900.879	91.8561	900.879	91.7144	900.879	91.5912	900.879	91.3009	900.879	91.0349	900.879	90.7698	900.879	90.3658	900.879	90.068	900.879	89.4872	900.879	89.0714	900.879	88.2389	900.879	87.7751	900.879	86.8241	900.879	86.3284	900.879	85.7013	900.879	84.8155	900.879	85.0988	900.879	83.0731	900.879	84.3926	900.879	81.1776	900.879	82.7255	900.879	79.8722	900.879	80.2892	900.879	79.6896	900.879	78.715	900.879	79.6873	900.879	77.3771	900.879	78.4401	900.879	73.3872	900.879	75.8372	900.879	71.0176	900.879	75.2884	900.879	75.1675	900.879	76.8229	900.879	77.2748	900.879	77.6717
933.105	91.682	933.105	91.6553	933.105	91.6407	933.105	91.6448	933.105	91.2279	933.105	91.3518	933.105	90.2652	933.105	90.4792	933.105	88.8775	933.105	89.1077	933.105	87.5805	933.105	87.6227	933.105	86.4436	933.105	86.1678	933.105	84.5854	933.105	84.5862	933.105	82.0471	933.105	83.373	933.105	81.2156	933.105	83.2162	933.105	81.7408	933.105	83.1987	933.105	81.9971	933.105	82.2157	933.105	82.8665	933.105	80.4922	933.105	83.5162	933.105	78.8823	933.105	82.7597	933.105	76.1526	933.105	80.4059	933.105	68.0473	933.105	76.7835	933.105	70.9579	933.105	75.0564	933.105	75.3896
965.332	93.0242	965.332	92.5226	965.332	92.9669	965.332	91.657	965.332	92.3372	965.332	90.5925	965.332	91.3866	965.332	89.4775	965.332	90.3952	965.332	88.4108	965.332	89.5062	965.332	87.2177	965.332	88.7326	965.332	85.6684	965.332	87.7377	965.332	83.9356	965.332	85.9424	965.332	82.0807	965.332	83.6017	965.332	79.5749	965.332	82.4743	965.332	78.2863	965.332	82.3482	965.332	78.9968	965.332	81.0966	965.332	77.562	965.332	79.746	965.332	73.4903	965.332	80.1322	965.332	65.0991	965.332	79.8244	965.332	67.8358	965.332	78.1897	965.332	74.1362	965.332	76.3629	965.332	75.7698
1,000.49	91.1569	1,000.49	91.1435	1,000.49	91.1749	1,000.49	90.9929	1,000.49	91.1165	1,000.49	90.5805	1,000.49	90.8026	1,000.49	89.9208	1,000.49	90.1375	1,000.49	89.0002	1,000.49	89.1036	1,000.49	87.7479	1,000.49	87.8244	1,000.49	86.1234	1,000.49	86.5116	1,000.49	84.1904	1,000.49	85.2269	1,000.49	82.3878	1,000.49	83.9882	1,000.49	81.0159	1,000.49	82.7819	1,000.49	79.7415	1,000.49	81.5409	1,000.49	78.6093	1,000.49	80.9664	1,000.49	77.4605	1,000.49	80.6897	1,000.49	75.492	1,000.49	78.7598	1,000.49	73.1022	1,000.49	74.2636	1,000.49	76.5846	1,000.49	76.0691	1,000.49	80.9241	1,000.49	80.9026	1,000.49	82.4202
1,035.64	89.8078	1,035.64	89.177	1,035.64	90.4878	1,035.64	88.9118	1,035.64	90.7422	1,035.64	88.8295	1,035.64	90.2549	1,035.64	88.5363	1,035.64	89.1307	1,035.64	87.9532	1,035.64	88.0831	1,035.64	87.3692	1,035.64	87.6163	1,035.64	86.7266	1,035.64	87.153	1,035.64	86.1037	1,035.64	85.9301	1,035.64	85.6872	1,035.64	84.2017	1,035.64	84.2875	1,035.64	82.6502	1,035.64	81.1567	1,035.64	81.4066	1,035.64	80.5586	1,035.64	80.0898	1,035.64	81.3069	1,035.64	78.0143	1,035.64	80.2951	1,035.64	76.0933	1,035.64	77.6835	1,035.64	71.963	1,035.64	69.6222	1,035.64	58.9234	1,035.64	68.9919	1,035.64	74.2678	1,035.64	75.9296
1,072.27	92.3471	1,072.27	91.832	1,072.27	92.1142	1,072.27	90.7617	1,072.27	91.264	1,072.27	89.6194	1,072.27	90.2257	1,072.27	88.8545	1,072.27	89.3083	1,072.27	88.3567	1,072.27	88.3775	1,072.27	87.5632	1,072.27	87.2243	1,072.27	86.0995	1,072.27	85.8513	1,072.27	84.3081	1,072.27	84.1989	1,072.27	82.8917	1,072.27	82.1518	1,072.27	81.944	1,072.27	80.0892	1,072.27	80.8946	1,072.27	78.4992	1,072.27	79.4	1,072.27	77.4847	1,072.27	77.2287	1,072.27	77.1947	1,072.27	73.4593	1,072.27	76.1511	1,072.27	65.2418	1,072.27	71.752	1,072.27	71.9779	1,072.27	59.5456	1,072.27	75.0222	1,072.27	66.6387	1,072.27	72.774
1,108.89	91.7317	1,108.89	91.1638	1,108.89	91.7663	1,108.89	90.363	1,108.89	91.2236	1,108.89	89.5603	1,108.89	90.5145	1,108.89	89.0192	1,108.89	89.7425	1,108.89	88.6536	1,108.89	88.4702	1,108.89	87.8171	1,108.89	86.893	1,108.89	86.149	1,108.89	85.9454	1,108.89	84.2849	1,108.89	85.1815	1,108.89	82.7401	1,108.89	83.5984	1,108.89	81.1306	1,108.89	81.8621	1,108.89	79.3951	1,108.89	80.0879	1,108.89	78.4932	1,108.89	77.7022	1,108.89	78.7253	1,108.89	76.8694	1,108.89	78.0637	1,108.89	76.122	1,108.89	77.197	1,108.89	73.5473	1,108.89	79.8421	1,108.89	73.0837	1,108.89	81.5372	1,108.89	77.2266	1,108.89	80.4559
1,148.44	89.4812	1,148.44	89.1035	1,148.44	89.1194	1,148.44	88.3484	1,148.44	88.6607	1,148.44	88.1262	1,148.44	88.736	1,148.44	88.1634	1,148.44	88.971	1,148.44	87.5164	1,148.44	88.5596	1,148.44	86.5327	1,148.44	87.3745	1,148.44	85.9411	1,148.44	86.5481	1,148.44	84.8972	1,148.44	85.5449	1,148.44	83.2734	1,148.44	82.7257	1,148.44	81.8807	1,148.44	79.5832	1,148.44	79.9645	1,148.44	81.159	1,148.44	79.1861	1,148.44	82.2707	1,148.44	78.7581	1,148.44	81.6739	1,148.44	76.506	1,148.44	79.9055	1,148.44	70.2019	1,148.44	75.2305	1,148.44	63.6883	1,148.44	63.182	1,148.44	75.2547	1,148.44	77.0768	1,148.44	78.561
1,189.45	90.9651	1,189.45	90.7397	1,189.45	90.8649	1,189.45	90.4496	1,189.45	90.4187	1,189.45	90.1252	1,189.45	90.0083	1,189.45	89.3222	1,189.45	89.7045	1,189.45	88.1917	1,189.45	88.8113	1,189.45	87.7111	1,189.45	87.6305	1,189.45	87.693	1,189.45	87.1855	1,189.45	86.5333	1,189.45	86.5698	1,189.45	83.6214	1,189.45	84.738	1,189.45	80.0489	1,189.45	83.3286	1,189.45	77.9076	1,189.45	81.8478	1,189.45	78.8309	1,189.45	78.2142	1,189.45	79.9135	1,189.45	77.8915	1,189.45	78.1854	1,189.45	79.5257	1,189.45	72.4932	1,189.45	78.5912	1,189.45	61.8696	1,189.45	77.2984	1,189.45	59.1091	1,189.45	77.1764	1,189.45	73.0488
1,230.47	90.5929	1,230.47	90.6583	1,230.47	90.5329	1,230.47	90.8727	1,230.47	90.334	1,230.47	90.6674	1,230.47	90.1455	1,230.47	89.5523	1,230.47	89.8342	1,230.47	88.474	1,230.47	89.313	1,230.47	87.8982	1,230.47	88.466	1,230.47	86.8887	1,230.47	87.5138	1,230.47	86.2226	1,230.47	86.6924	1,230.47	85.3699	1,230.47	84.9655	1,230.47	82.4367	1,230.47	81.813	1,230.47	79.7634	1,230.47	78.3534	1,230.47	79.9772	1,230.47	75.9329	1,230.47	79.6931	1,230.47	79.5838	1,230.47	79.9719	1,230.47	81.666	1,230.47	78.2894	1,230.47	78.1504	1,230.47	65.0952	1,230.47	66.3536	1,230.47	76.2362	1,230.47	75.3695	1,230.47	78.8033
1,274.41	91.1982	1,274.41	90.9933	1,274.41	91.1804	1,274.41	90.9296	1,274.41	90.6927	1,274.41	90.4235	1,274.41	89.9629	1,274.41	89.4427	1,274.41	89.751	1,274.41	89.1913	1,274.41	89.3677	1,274.41	88.7481	1,274.41	87.8498	1,274.41	86.9268	1,274.41	86.5639	1,274.41	85.806	1,274.41	86.8184	1,274.41	86.0551	1,274.41	85.5697	1,274.41	84.5397	1,274.41	82.3969	1,274.41	79.5068	1,274.41	80.2778	1,274.41	76.6408	1,274.41	77.9372	1,274.41	78.8712	1,274.41	78.3141	1,274.41	80.5557	1,274.41	79.8806	1,274.41	78.1006	1,274.41	77.2404	1,274.41	67.8213	1,274.41	74.4952	1,274.41	76.6393	1,274.41	72.5745	1,274.41	76.5248
1,319.82	90.9682	1,319.82	90.9647	1,319.82	90.6741	1,319.82	90.6095	1,319.82	90.0983	1,319.82	89.6437	1,319.82	89.4994	1,319.82	88.9938	1,319.82	88.7176	1,319.82	88.8728	1,319.82	88.1609	1,319.82	87.9753	1,319.82	87.8447	1,319.82	86.8116	1,319.82	86.5228	1,319.82	86.3192	1,319.82	85.1851	1,319.82	85.0513	1,319.82	84.6831	1,319.82	81.9911	1,319.82	83.2621	1,319.82	79.5495	1,319.82	81.2403	1,319.82	77.9999	1,319.82	79.9928	1,319.82	76.8575	1,319.82	77.3124	1,319.82	80.2383	1,319.82	74.4279	1,319.82	79.7318	1,319.82	72.4461	1,319.82	75.8001	1,319.82	69.9732	1,319.82	76.0527	1,319.82	73.6991	1,319.82	78.0554
1,366.7	89.2688	1,366.7	89.7181	1,366.7	89.3074	1,366.7	90.037	1,366.7	90.2682	1,366.7	89.9831	1,366.7	90.7339	1,366.7	89.6129	1,366.7	90.0823	1,366.7	88.4585	1,366.7	89.2267	1,366.7	86.9118	1,366.7	88.0085	1,366.7	86.5816	1,366.7	85.914	1,366.7	85.8099	1,366.7	85.0661	1,366.7	83.7688	1,366.7	85.1342	1,366.7	82.2974	1,366.7	82.601	1,366.7	79.2373	1,366.7	79.4219	1,366.7	74.847	1,366.7	79.0232	1,366.7	72.463	1,366.7	77.9545	1,366.7	73.7372	1,366.7	77.1567	1,366.7	74.1849	1,366.7	77.4436	1,366.7	71.9961	1,366.7	74.1045	1,366.7	77.3807	1,366.7	72.459	1,366.7	78.8354
1,413.57	89.1715	1,413.57	90.049	1,413.57	88.5498	1,413.57	90.4535	1,413.57	89.6603	1,413.57	90.6048	1,413.57	90.7527	1,413.57	89.5309	1,413.57	90.6373	1,413.57	86.7889	1,413.57	89.6455	1,413.57	84.9317	1,413.57	88.2854	1,413.57	84.7923	1,413.57	86.029	1,413.57	84.7475	1,413.57	83.9644	1,413.57	83.7558	1,413.57	83.0027	1,413.57	82.0674	1,413.57	76.5702	1,413.57	81.9971	1,413.57	73.1179	1,413.57	78.8907	1,413.57	77.2784	1,413.57	70.8943	1,413.57	77.3431	1,413.57	72.3992	1,413.57	81.7677	1,413.57	75.923	1,413.57	80.1396	1,413.57	72.9595	1,413.57	75.4441	1,413.57	61.2904	1,413.57	70.1619	1,413.57	64.4858
1,463.38	87.4409	1,463.38	88.7092	1,463.38	87.2853	1,463.38	89.8178	1,463.38	88.2737	1,463.38	90.5188	1,463.38	89.9068	1,463.38	91.234	1,463.38	91.0961	1,463.38	90.9449	1,463.38	90.6506	1,463.38	88.9462	1,463.38	89.0078	1,463.38	87.4391	1,463.38	86.2034	1,463.38	87.4029	1,463.38	84.9092	1,463.38	85.9793	1,463.38	86.9191	1,463.38	82.2708	1,463.38	86.8644	1,463.38	79.9535	1,463.38	83.0958	1,463.38	75.9081	1,463.38	78.9855	1,463.38	67.228	1,463.38	76.3877	1,463.38	70.4	1,463.38	75.3504	1,463.38	74.9376	1,463.38	80.0755	1,463.38	75.8918	1,463.38	76.4912	1,463.38	74.9773	1,463.38	73.7772	1,463.38	76.0629
1,516.11	88.9893	1,516.11	90.2799	1,516.11	89.0574	1,516.11	90.6184	1,516.11	91.1751	1,516.11	90.6086	1,516.11	92.4207	1,516.11	90.9121	1,516.11	91.5899	1,516.11	90.144	1,516.11	90.0402	1,516.11	88.6118	1,516.11	88.0517	1,516.11	86.7346	1,516.11	85.8117	1,516.11	83.2657	1,516.11	85.1696	1,516.11	83.4133	1,516.11	85.5199	1,516.11	85.1149	1,516.11	84.0441	1,516.11	84.6467	1,516.11	82.2697	1,516.11	81.0889	1,516.11	80.6773	1,516.11	73.6301	1,516.11	74.0367	1,516.11	71.3284	1,516.11	80.5653	1,516.11	78.287	1,516.11	79.6886	1,516.11	75.4762	1,516.11	75.2949	1,516.11	75.5101	1,516.11	68.7333	1,516.11	75.7326
1,568.85	89.0964	1,568.85	89.6175	1,568.85	88.5056	1,568.85	91.1565	1,568.85	87.5217	1,568.85	91.6552	1,568.85	89.3691	1,568.85	90.8067	1,568.85	91.5154	1,568.85	89.5145	1,568.85	91.0733	1,568.85	86.9069	1,568.85	89.2505	1,568.85	86.7051	1,568.85	87.8903	1,568.85	87.6934	1,568.85	86.3603	1,568.85	83.8992	1,568.85	80.8055	1,568.85	78.9222	1,568.85	81.2761	1,568.85	81.561	1,568.85	83.0439	1,568.85	81.8728	1,568.85	79.562	1,568.85	76.3991	1,568.85	82.7683	1,568.85	74.1912	1,568.85	78.9496	1,568.85	79.9366	1,568.85	72.2058	1,568.85	75.416	1,568.85	57.1275	1,568.85	70.4458	1,568.85	75.4922	1,568.85	69.8273
1,624.51	87.9889	1,624.51	88.4231	1,624.51	89.7654	1,624.51	90.1379	1,624.51	91.765	1,624.51	92.1874	1,624.51	91.74	1,624.51	92.9249	1,624.51	90.1137	1,624.51	91.1977	1,624.51	90.7252	1,624.51	88.7584	1,624.51	88.9352	1,624.51	86.8909	1,624.51	82.1861	1,624.51	85.3606	1,624.51	78.8344	1,624.51	83.4317	1,624.51	82.3236	1,624.51	80.6593	1,624.51	82.3034	1,624.51	82.5018	1,624.51	75.9189	1,624.51	80.8511	1,624.51	77.25	1,624.51	75.3405	1,624.51	74.1185	1,624.51	72.1292	1,624.51	64.1651	1,624.51	79.2078	1,624.51	72.5369	1,624.51	75.2715	1,624.51	71.326	1,624.51	77.3831	1,624.51	73.9077	1,624.51	75.853
1,681.64	88.8336	1,681.64	88.6357	1,681.64	88.6247	1,681.64	89.7107	1,681.64	88.0063	1,681.64	91.157	1,681.64	90.3006	1,681.64	89.8674	1,681.64	91.8433	1,681.64	87.8461	1,681.64	89.4691	1,681.64	87.6344	1,681.64	87.5844	1,681.64	85.0694	1,681.64	85.117	1,681.64	80.1222	1,681.64	83.7492	1,681.64	80.8583	1,681.64	77.966	1,681.64	82.3577	1,681.64	75.9537	1,681.64	83.0644	1,681.64	82.3164	1,681.64	77.9727	1,681.64	79.1749	1,681.64	73.9346	1,681.64	75.2881	1,681.64	66.8229	1,681.64	75.6448	1,681.64	73.4908	1,681.64	74.2537	1,681.64	70.8647	1,681.64	70.7243	1,681.64	64.8737	1,681.64	77.9408	1,681.64	78.8132
1,741.7	90.2374	1,741.7	91.1361	1,741.7	90.8153	1,741.7	91.7723	1,741.7	93.0322	1,741.7	91.291	1,741.7	92.584	1,741.7	90.8846	1,741.7	90.514	1,741.7	90.0377	1,741.7	89.6853	1,741.7	87.5456	1,741.7	87.0442	1,741.7	84.257	1,741.7	86.4723	1,741.7	79.0384	1,741.7	86.1769	1,741.7	80.6935	1,741.7	81.672	1,741.7	83.16	1,741.7	70.3688	1,741.7	68.3039	1,741.7	80.0367	1,741.7	78.4682	1,741.7	80.1505	1,741.7	77.7636	1,741.7	78.0962	1,741.7	76.6645	1,741.7	76.7046	1,741.7	67.3499	1,741.7	73.7415	1,741.7	72.6497	1,741.7	64.1806	1,741.7	77.8608	1,741.7	70.8697	1,741.7	78.8993
1,803.22	90.984	1,803.22	91.4385	1,803.22	91.3181	1,803.22	92.0628	1,803.22	92.9345	1,803.22	92.483	1,803.22	92.8154	1,803.22	92.0807	1,803.22	91.5919	1,803.22	90.5397	1,803.22	91.307	1,803.22	88.6063	1,803.22	90.2652	1,803.22	86.602	1,803.22	86.7784	1,803.22	85.5375	1,803.22	84.2299	1,803.22	81.9945	1,803.22	83.126	1,803.22	75.0369	1,803.22	81.6431	1,803.22	72.4064	1,803.22	78.5993	1,803.22	79.9193	1,803.22	78.5314	1,803.22	78.5528	1,803.22	81.8238	1,803.22	76.3364	1,803.22	77.6385	1,803.22	78.4404	1,803.22	65.3328	1,803.22	77.4762	1,803.22	69.3511	1,803.22	71.4189	1,803.22	75.8198	1,803.22	75.0363
1,866.21	91.3443	1,866.21	91.8053	1,866.21	91.6541	1,866.21	92.2765	1,866.21	92.0514	1,866.21	92.2508	1,866.21	92.406	1,866.21	91.5732	1,866.21	91.9492	1,866.21	89.8584	1,866.21	90.1336	1,866.21	87.5223	1,866.21	88.0884	1,866.21	85.4065	1,866.21	85.9662	1,866.21	82.4063	1,866.21	83.6349	1,866.21	80.6166	1,866.21	82.0008	1,866.21	79.3087	1,866.21	78.531	1,866.21	77.7942	1,866.21	76.8119	1,866.21	76.9998	1,866.21	78.2251	1,866.21	76.2465	1,866.21	76.708	1,866.21	73.2094	1,866.21	74.3838	1,866.21	69.4694	1,866.21	73.3095	1,866.21	72.9179	1,866.21	74.3242	1,866.21	66.7798	1,866.21	58.876	1,866.21	73.1812
1,932.13	89.5468	1,932.13	90.4307	1,932.13	89.9624	1,932.13	91.4577	1,932.13	91.0515	1,932.13	91.2928	1,932.13	91.3426	1,932.13	90.3214	1,932.13	90.5974	1,932.13	88.3309	1,932.13	89.4758	1,932.13	86.1178	1,932.13	87.2532	1,932.13	84.4437	1,932.13	84.3307	1,932.13	82.8125	1,932.13	81.9019	1,932.13	80.6758	1,932.13	80.1703	1,932.13	76.4447	1,932.13	78.6003	1,932.13	77.7281	1,932.13	75.6059	1,932.13	76.5737	1,932.13	76.5723	1,932.13	75.1144	1,932.13	73.5511	1,932.13	68.6429	1,932.13	70.5903	1,932.13	71.2932	1,932.13	69.2522	1,932.13	62.6057	1,932.13	72.5465	1,932.13	71.4722	1,932.13	70.2307	1,932.13	70.7661
1,999.51	90.9349	1,999.51	91.0804	1,999.51	91.0955	1,999.51	91.3921	1,999.51	91.6068	1,999.51	91.2378	1,999.51	91.7797	1,999.51	90.214	1,999.51	90.987	1,999.51	88.3504	1,999.51	89.3699	1,999.51	85.9125	1,999.51	87.3076	1,999.51	83.5901	1,999.51	85.1844	1,999.51	80.9933	1,999.51	83.1447	1,999.51	78.2686	1,999.51	81.0055	1,999.51	75.941	1,999.51	78.8497	1,999.51	75.2213	1,999.51	77.4421	1,999.51	75.79	1,999.51	76.0608	1,999.51	75.2235	1,999.51	76.0347	1,999.51	71.3377	1,999.51	72.2964	1,999.51	72.2657	1,999.51	69.3367	1,999.51	71.3564	1,999.51	70.8626	1,999.51	70.2756	1,999.51	50.1462	1,999.51	70.8337
2,069.82	92.1478	2,069.82	92.1348	2,069.82	92.3332	2,069.82	92.3417	2,069.82	92.5043	2,069.82	92.0305	2,069.82	92.2795	2,069.82	90.8553	2,069.82	91.333	2,069.82	89.1588	2,069.82	89.9291	2,069.82	87.0962	2,069.82	87.9268	2,069.82	84.9019	2,069.82	85.4169	2,069.82	82.5984	2,069.82	83.1022	2,069.82	80.7727	2,069.82	81.5227	2,069.82	78.5284	2,069.82	79.3153	2,069.82	75.7963	2,069.82	75.181	2,069.82	75.6803	2,069.82	76.6974	2,069.82	76.2173	2,069.82	77.4832	2,069.82	71.96	2,069.82	73.7502	2,069.82	69.0475	2,069.82	70.7796	2,069.82	71.056	2,069.82	74.4999	2,069.82	54.6088	2,069.82	65.4186	2,069.82	71.8131
2,143.07	92.1816	2,143.07	92.3573	2,143.07	92.1067	2,143.07	92.5451	2,143.07	92.2429	2,143.07	92.1796	2,143.07	92.168	2,143.07	91.1958	2,143.07	91.3222	2,143.07	89.5898	2,143.07	89.8598	2,143.07	87.7344	2,143.07	88.2127	2,143.07	85.7629	2,143.07	86.2359	2,143.07	83.3577	2,143.07	83.6834	2,143.07	81.4433	2,143.07	82.0186	2,143.07	79.5211	2,143.07	80.6905	2,143.07	76.5348	2,143.07	78.3314	2,143.07	76.3587	2,143.07	75.8517	2,143.07	75.9397	2,143.07	76.0689	2,143.07	71.0087	2,143.07	74.0889	2,143.07	70.9492	2,143.07	66.4629	2,143.07	71.5118	2,143.07	67.2711	2,143.07	66.6095	2,143.07	61.2869	2,143.07	70.6895
2,219.24	92.2244	2,219.24	91.9698	2,219.24	92.1302	2,219.24	91.7822	2,219.24	91.9332	2,219.24	91.3361	2,219.24	91.2341	2,219.24	89.9838	2,219.24	90.3028	2,219.24	88.7521	2,219.24	89.4488	2,219.24	87.1833	2,219.24	87.8743	2,219.24	85.6761	2,219.24	85.8245	2,219.24	83.3826	2,219.24	84.0668	2,219.24	81.3573	2,219.24	81.6827	2,219.24	79.9831	2,219.24	79.5803	2,219.24	77.2648	2,219.24	77.0056	2,219.24	75.7018	2,219.24	75.6326	2,219.24	76.5674	2,219.24	76.4603	2,219.24	73.2651	2,219.24	75.4128	2,219.24	70.2452	2,219.24	70.5936	2,219.24	72.1472	2,219.24	74.4155	2,219.24	65.1031	2,219.24	56.714	2,219.24	70.5591
2,296.88	92.7294	2,296.88	92.1398	2,296.88	92.5226	2,296.88	91.3222	2,296.88	91.9903	2,296.88	90.4875	2,296.88	91.3661	2,296.88	89.8774	2,296.88	90.25	2,296.88	89.1282	2,296.88	89.3475	2,296.88	87.9169	2,296.88	88.6482	2,296.88	86.0362	2,296.88	87.1058	2,296.88	83.0272	2,296.88	84.5145	2,296.88	81.0338	2,296.88	82.1975	2,296.88	79.7469	2,296.88	81.6022	2,296.88	77.4609	2,296.88	79.409	2,296.88	75.3774	2,296.88	77.2678	2,296.88	75.2502	2,296.88	76.0121	2,296.88	74.3265	2,296.88	75.2358	2,296.88	65.7074	2,296.88	67.0874	2,296.88	68.9474	2,296.88	73.8143	2,296.88	66.3409	2,296.88	65.2979	2,296.88	71.7707
2,378.91	93.744	2,378.91	93.019	2,378.91	93.3916	2,378.91	91.9645	2,378.91	92.3477	2,378.91	91.2613	2,378.91	91.0075	2,378.91	90.6357	2,378.91	90.5661	2,378.91	89.9724	2,378.91	90.4953	2,378.91	89.0205	2,378.91	89.424	2,378.91	87.3565	2,378.91	87.5727	2,378.91	84.4941	2,378.91	85.4339	2,378.91	81.8544	2,378.91	82.9408	2,378.91	79.4631	2,378.91	80.2799	2,378.91	77.3426	2,378.91	79.4451	2,378.91	75.314	2,378.91	75.4756	2,378.91	76.1393	2,378.91	75.5814	2,378.91	74.6887	2,378.91	75.4797	2,378.91	68.3191	2,378.91	67.9114	2,378.91	74.1525	2,378.91	70.3137	2,378.91	64.3494	2,378.91	64.79	2,378.91	66.7899
2,462.4	92.9285	2,462.4	91.7537	2,462.4	92.2812	2,462.4	90.5814	2,462.4	90.8972	2,462.4	90.1213	2,462.4	90.4634	2,462.4	90.1423	2,462.4	90.3646	2,462.4	90.2748	2,462.4	90.1866	2,462.4	89.3267	2,462.4	89.5288	2,462.4	87.3871	2,462.4	88.0931	2,462.4	84.3896	2,462.4	85.1481	2,462.4	81.7898	2,462.4	81.7974	2,462.4	80.2256	2,462.4	79.0886	2,462.4	78.9372	2,462.4	78.6245	2,462.4	75.7597	2,462.4	76.5409	2,462.4	75.0319	2,462.4	73.9105	2,462.4	75.2878	2,462.4	74.302	2,462.4	68.8157	2,462.4	68.2784	2,462.4	70.8876	2,462.4	71.3465	2,462.4	59.7327	2,462.4	58.7051	2,462.4	71.393
2,548.83	93.3543	2,548.83	92.1469	2,548.83	93.0637	2,548.83	90.4553	2,548.83	91.1147	2,548.83	89.9741	2,548.83	89.7827	2,548.83	90.5309	2,548.83	90.3589	2,548.83	90.363	2,548.83	90.9128	2,548.83	89.384	2,548.83	90.2185	2,548.83	87.3124	2,548.83	88.3382	2,548.83	84.3499	2,548.83	85.8177	2,548.83	80.9735	2,548.83	82.882	2,548.83	77.8558	2,548.83	80.6047	2,548.83	77.5324	2,548.83	78.1153	2,548.83	76.5612	2,548.83	78.2047	2,548.83	73.9386	2,548.83	76.3151	2,548.83	75.2943	2,548.83	74.7866	2,548.83	65.95	2,548.83	71.9949	2,548.83	71.767	2,548.83	73.2206	2,548.83	60.3731	2,548.83	65.0517	2,548.83	69.6247
2,639.65	93.6627	2,639.65	91.9902	2,639.65	92.5194	2,639.65	90.192	2,639.65	90.6783	2,639.65	90.2619	2,639.65	90.233	2,639.65	90.7642	2,639.65	90.6798	2,639.65	90.8023	2,639.65	90.7373	2,639.65	89.2572	2,639.65	89.9778	2,639.65	86.9607	2,639.65	87.8924	2,639.65	83.9188	2,639.65	84.5905	2,639.65	80.8541	2,639.65	81.44	2,639.65	77.9012	2,639.65	78.3996	2,639.65	76.7858	2,639.65	77.6673	2,639.65	75.9966	2,639.65	75.9426	2,639.65	72.3869	2,639.65	74.1681	2,639.65	72.977	2,639.65	73.4571	2,639.65	60.2581	2,639.65	68.7805	2,639.65	67.4283	2,639.65	68.6168	2,639.65	64.9257	2,639.65	63.9345	2,639.65	68.6568
2,731.93	93.6381	2,731.93	92.1373	2,731.93	92.8847	2,731.93	89.8412	2,731.93	90.5221	2,731.93	89.9127	2,731.93	89.73	2,731.93	90.6547	2,731.93	90.4884	2,731.93	90.222	2,731.93	90.5636	2,731.93	88.7388	2,731.93	89.0622	2,731.93	86.2731	2,731.93	86.8263	2,731.93	83.2623	2,731.93	84.4128	2,731.93	80.3085	2,731.93	81.2018	2,731.93	77.7476	2,731.93	77.5781	2,731.93	75.9089	2,731.93	74.8996	2,731.93	75.3423	2,731.93	73.6013	2,731.93	72.7237	2,731.93	73.2134	2,731.93	73.0678	2,731.93	71.081	2,731.93	65.7957	2,731.93	65.5452	2,731.93	72.1519	2,731.93	64.0337	2,731.93	62.2328	2,731.93	66.6319	2,731.93	64.7578
2,828.61	94.1418	2,828.61	92.7111	2,828.61	93.2878	2,828.61	91.286	2,828.61	91.5973	2,828.61	91.0402	2,828.61	91.1244	2,828.61	91.3624	2,828.61	91.3116	2,828.61	90.3543	2,828.61	90.8872	2,828.61	88.3743	2,828.61	89.5815	2,828.61	85.2111	2,828.61	86.4407	2,828.61	82.0695	2,828.61	83.2345	2,828.61	78.2929	2,828.61	80.9032	2,828.61	75.0983	2,828.61	78.3017	2,828.61	71.6358	2,828.61	75.0891	2,828.61	73.5139	2,828.61	75.5677	2,828.61	70.1334	2,828.61	73.619	2,828.61	71.5915	2,828.61	68.0493	2,828.61	65.7257	2,828.61	70.7658	2,828.61	68.78	2,828.61	61.3412	2,828.61	41.7657	2,828.61	66.4585	2,828.61	65.9078
2,928.22	93.9932	2,928.22	92.6144	2,928.22	93.0504	2,928.22	91.2906	2,928.22	91.5712	2,928.22	91.5146	2,928.22	91.4987	2,928.22	91.6229	2,928.22	91.3803	2,928.22	90.2289	2,928.22	90.5176	2,928.22	87.5725	2,928.22	88.4529	2,928.22	84.7225	2,928.22	85.3539	2,928.22	81.6397	2,928.22	82.5528	2,928.22	78.9261	2,928.22	78.5635	2,928.22	77.7694	2,928.22	77.4766	2,928.22	74.4293	2,928.22	73.9725	2,928.22	74.8531	2,928.22	73.8538	2,928.22	73.6775	2,928.22	75.5265	2,928.22	72.2903	2,928.22	69.9177	2,928.22	71.0873	2,928.22	69.7046	2,928.22	71.2738	2,928.22	60.7557	2,928.22	64.5309	2,928.22	60.1413	2,928.22	64.5471
3,030.76	93.1338	3,030.76	92.1944	3,030.76	92.6855	3,030.76	91.0559	3,030.76	91.4925	3,030.76	91.4306	3,030.76	91.2946	3,030.76	90.8808	3,030.76	91.3987	3,030.76	89.2383	3,030.76	90.2051	3,030.76	87.2812	3,030.76	87.4139	3,030.76	84.4213	3,030.76	84.8757	3,030.76	80.9234	3,030.76	82.2826	3,030.76	78.4083	3,030.76	78.6551	3,030.76	76.6425	3,030.76	77.1258	3,030.76	70.6017	3,030.76	74.5052	3,030.76	70.9356	3,030.76	69.1342	3,030.76	73.8517	3,030.76	72.1853	3,030.76	71.8383	3,030.76	68.5066	3,030.76	68.9325	3,030.76	69.093	3,030.76	65.3252	3,030.76	66.6532	3,030.76	64.8696	3,030.76	66.7459	3,030.76	65.396
3,137.7	93.4665	3,137.7	92.2219	3,137.7	92.8585	3,137.7	91.683	3,137.7	91.6292	3,137.7	91.6126	3,137.7	91.4702	3,137.7	91.1222	3,137.7	91.1618	3,137.7	89.1817	3,137.7	89.9189	3,137.7	87.1115	3,137.7	87.5197	3,137.7	84.1764	3,137.7	84.8105	3,137.7	81.8136	3,137.7	82.5796	3,137.7	78.707	3,137.7	80.1579	3,137.7	76.2629	3,137.7	76.7515	3,137.7	73.7353	3,137.7	74.5051	3,137.7	71.6846	3,137.7	73.9827	3,137.7	70.8347	3,137.7	73.4243	3,137.7	68.2957	3,137.7	71.7677	3,137.7	61.3446	3,137.7	73.6356	3,137.7	68.3858	3,137.7	63.452	3,137.7	58.8661	3,137.7	67.6069	3,137.7	67.0048
3,249.02	93.411	3,249.02	92.7244	3,249.02	92.8714	3,249.02	92.0571	3,249.02	92.2843	3,249.02	91.5391	3,249.02	91.5882	3,249.02	90.8783	3,249.02	90.9943	3,249.02	88.499	3,249.02	89.396	3,249.02	85.7299	3,249.02	87.2125	3,249.02	84.3193	3,249.02	84.6991	3,249.02	82.154	3,249.02	83.1165	3,249.02	78.7408	3,249.02	80.9823	3,249.02	77.5372	3,249.02	78.1758	3,249.02	76.0726	3,249.02	75.565	3,249.02	72.5332	3,249.02	70.832	3,249.02	72.0553	3,249.02	75.2954	3,249.02	70.8804	3,249.02	72.1693	3,249.02	71.4331	3,249.02	71.1846	3,249.02	65.0525	3,249.02	62.3439	3,249.02	60.0746	3,249.02	58.1551	3,249.02	65.7603
3,363.28	92.9225	3,363.28	92.6166	3,363.28	92.7112	3,363.28	92.159	3,363.28	92.3388	3,363.28	91.1749	3,363.28	90.9656	3,363.28	89.6119	3,363.28	90.1149	3,363.28	87.876	3,363.28	88.3186	3,363.28	86.225	3,363.28	86.5435	3,363.28	84.4818	3,363.28	84.6081	3,363.28	81.6987	3,363.28	83.1952	3,363.28	79.0474	3,363.28	79.6668	3,363.28	77.2197	3,363.28	76.8634	3,363.28	74.673	3,363.28	76.3736	3,363.28	73.4749	3,363.28	70.6895	3,363.28	74.0616	3,363.28	74.5004	3,363.28	70.3237	3,363.28	72.6089	3,363.28	69.2299	3,363.28	70.545	3,363.28	46.3237	3,363.28	65.8331	3,363.28	61.472	3,363.28	66.1115	3,363.28	68.326
3,481.93	92.7733	3,481.93	93.0886	3,481.93	92.6611	3,481.93	92.284	3,481.93	92.5379	3,481.93	90.5364	3,481.93	91.3692	3,481.93	89.5263	3,481.93	89.9727	3,481.93	88.6415	3,481.93	88.7095	3,481.93	87.4024	3,481.93	87.6379	3,481.93	85.6327	3,481.93	86.318	3,481.93	83.7346	3,481.93	84.3857	3,481.93	80.5684	3,481.93	82.0008	3,481.93	76.7237	3,481.93	78.4201	3,481.93	74.3677	3,481.93	75.9038	3,481.93	73.3648	3,481.93	75.6782	3,481.93	72.8949	3,481.93	74.2948	3,481.93	71.2126	3,481.93	74.1107	3,481.93	68.4567	3,481.93	72.0525	3,481.93	63.3277	3,481.93	66.7378	3,481.93	61.9914	3,481.93	63.427	3,481.93	66.6945
3,604.98	92.2169	3,604.98	92.996	3,604.98	92.4001	3,604.98	92.2513	3,604.98	92.5833	3,604.98	90.0914	3,604.98	90.6818	3,604.98	88.7397	3,604.98	89.1112	3,604.98	88.9102	3,604.98	88.4296	3,604.98	88.5942	3,604.98	88.5788	3,604.98	86.4784	3,604.98	87.0181	3,604.98	83.9334	3,604.98	84.8293	3,604.98	81.1501	3,604.98	82.8018	3,604.98	78.5216	3,604.98	78.9353	3,604.98	75.0949	3,604.98	75.1659	3,604.98	74.3912	3,604.98	74.3658	3,604.98	72.0831	3,604.98	73.7228	3,604.98	73.8248	3,604.98	72.9977	3,604.98	71.144	3,604.98	68.9281	3,604.98	63.9844	3,604.98	65.7167	3,604.98	64.7764	3,604.98	68.3109	3,604.98	64.6873
3,732.42	90.9927	3,732.42	92.1797	3,732.42	91.9068	3,732.42	92.0398	3,732.42	92.765	3,732.42	88.8773	3,732.42	90.7681	3,732.42	88.8037	3,732.42	88.2945	3,732.42	89.4214	3,732.42	89.7775	3,732.42	88.7807	3,732.42	89.7327	3,732.42	86.296	3,732.42	87.5443	3,732.42	83.7645	3,732.42	85.218	3,732.42	80.9846	3,732.42	81.7255	3,732.42	77.7594	3,732.42	79.3308	3,732.42	73.0776	3,732.42	76.0921	3,732.42	75.5258	3,732.42	75.7514	3,732.42	73.418	3,732.42	73.6109	3,732.42	72.3974	3,732.42	72.9433	3,732.42	69.8889	3,732.42	65.6805	3,732.42	59.5986	3,732.42	61.673	3,732.42	63.5045	3,732.42	65.9275	3,732.42	66.983
3,864.26	90.8732	3,864.26	92.8312	3,864.26	92.3645	3,864.26	92.4149	3,864.26	93.1707	3,864.26	89.6703	3,864.26	90.2054	3,864.26	89.0473	3,864.26	89.0173	3,864.26	90.385	3,864.26	90.321	3,864.26	89.1536	3,864.26	89.4535	3,864.26	86.5879	3,864.26	87.2182	3,864.26	84.4654	3,864.26	84.8121	3,864.26	80.3193	3,864.26	81.66	3,864.26	78.6759	3,864.26	78.9055	3,864.26	74.5548	3,864.26	75.824	3,864.26	73.8793	3,864.26	72.8491	3,864.26	73.6501	3,864.26	73.0234	3,864.26	72.5565	3,864.26	71.4616	3,864.26	67.6909	3,864.26	64.3743	3,864.26	58.562	3,864.26	64.3099	3,864.26	62.8581	3,864.26	65.8888	3,864.26	60.1275
4,000.49	91.3166	4,000.49	93.2396	4,000.49	92.6967	4,000.49	92.5532	4,000.49	93.0935	4,000.49	89.6419	4,000.49	90.3297	4,000.49	89.4531	4,000.49	89.2046	4,000.49	90.1169	4,000.49	90.4675	4,000.49	88.3553	4,000.49	89.1545	4,000.49	85.3459	4,000.49	86.4261	4,000.49	81.8288	4,000.49	83.3765	4,000.49	78.8157	4,000.49	80.2094	4,000.49	76.7899	4,000.49	77.2232	4,000.49	73.393	4,000.49	74.9885	4,000.49	73.4565	4,000.49	72.4714	4,000.49	70.7826	4,000.49	73.2325	4,000.49	72.191	4,000.49	72.4423	4,000.49	64.4677	4,000.49	61.9601	4,000.49	55.2002	4,000.49	62.9281	4,000.49	60.3352	4,000.49	66.9934	4,000.49	63.757
4,141.11	91.5849	4,141.11	93.3291	4,141.11	92.6297	4,141.11	92.1256	4,141.11	92.8732	4,141.11	89.7567	4,141.11	90.2231	4,141.11	89.8438	4,141.11	90.0006	4,141.11	90.192	4,141.11	89.9522	4,141.11	87.4716	4,141.11	88.5821	4,141.11	84.7035	4,141.11	85.6204	4,141.11	81.2113	4,141.11	82.3588	4,141.11	78.4748	4,141.11	80.1907	4,141.11	75.3276	4,141.11	77.0143	4,141.11	75.0801	4,141.11	74.9432	4,141.11	70.6751	4,141.11	70.6956	4,141.11	72.2211	4,141.11	73.0853	4,141.11	71.4489	4,141.11	70.0296	4,141.11	64.9898	4,141.11	66.5692	4,141.11	38.3899	4,141.11	60.1748	4,141.11	58.7767	4,141.11	67.1129	4,141.11	63.3441
4,287.6	91.7862	4,287.6	92.9305	4,287.6	92.8272	4,287.6	91.8693	4,287.6	92.4433	4,287.6	90.0157	4,287.6	90.5805	4,287.6	90.4998	4,287.6	89.9948	4,287.6	90.1161	4,287.6	90.6297	4,287.6	87.5026	4,287.6	88.7198	4,287.6	83.5685	4,287.6	85.1245	4,287.6	80.9462	4,287.6	82.6157	4,287.6	79.3886	4,287.6	80.2389	4,287.6	75.9436	4,287.6	77.893	4,287.6	74.925	4,287.6	74.4258	4,287.6	71.4885	4,287.6	71.9921	4,287.6	71.0033	4,287.6	71.6638	4,287.6	71.3259	4,287.6	71.1047	4,287.6	66.607	4,287.6	66.4826	4,287.6	63.8329	4,287.6	69.2678	4,287.6	58.7609	4,287.6	64.5869	4,287.6	67.4458
4,438.48	91.8271	4,438.48	92.46	4,438.48	92.293	4,438.48	91.1331	4,438.48	91.9728	4,438.48	90.3171	4,438.48	90.4798	4,438.48	90.2041	4,438.48	90.3532	4,438.48	89.242	4,438.48	89.342	4,438.48	86.9756	4,438.48	87.5518	4,438.48	84.0562	4,438.48	85.3934	4,438.48	81.5833	4,438.48	82.442	4,438.48	79.4358	4,438.48	81.0109	4,438.48	77.0983	4,438.48	77.8422	4,438.48	75.491	4,438.48	74.942	4,438.48	73.5758	4,438.48	74.0818	4,438.48	73.7033	4,438.48	72.1844	4,438.48	69.8996	4,438.48	70.613	4,438.48	63.9646	4,438.48	68.2204	4,438.48	60.6042	4,438.48	66.8121	4,438.48	64.7	4,438.48	65.544	4,438.48	66.0198
4,595.21	92.5755	4,595.21	92.4857	4,595.21	92.7153	4,595.21	92.0992	4,595.21	91.8374	4,595.21	91.7801	4,595.21	91.8836	4,595.21	90.4611	4,595.21	90.5981	4,595.21	89.1904	4,595.21	89.7302	4,595.21	87.9767	4,595.21	88.39	4,595.21	86.0037	4,595.21	86.9467	4,595.21	83.4166	4,595.21	84.5578	4,595.21	81.3882	4,595.21	81.6279	4,595.21	77.6382	4,595.21	79.1761	4,595.21	74.2847	4,595.21	75.5733	4,595.21	75.9105	4,595.21	74.5871	4,595.21	72.8071	4,595.21	73.2903	4,595.21	71.129	4,595.21	71.6602	4,595.21	66.2142	4,595.21	70.4911	4,595.21	56.4026	4,595.21	70.2124	4,595.21	65.7122	4,595.21	66.8735	4,595.21	67.9813
4,756.35	92.8023	4,756.35	91.3228	4,756.35	91.7021	4,756.35	91.5941	4,756.35	91.0276	4,756.35	91.6543	4,756.35	92.1375	4,756.35	89.1251	4,756.35	90.0117	4,756.35	88.5213	4,756.35	88.3497	4,756.35	88.4742	4,756.35	88.8002	4,756.35	86.8463	4,756.35	87.8108	4,756.35	83.9797	4,756.35	84.8558	4,756.35	81.3657	4,756.35	82.2445	4,756.35	78.3528	4,756.35	79.3242	4,756.35	76.4239	4,756.35	76.9324	4,756.35	75.7182	4,756.35	74.1503	4,756.35	74.2572	4,756.35	71.584	4,756.35	72.2086	4,756.35	72.1424	4,756.35	70.5631	4,756.35	70.1003	4,756.35	66.6235	4,756.35	68.1799	4,756.35	63.546	4,756.35	68.0411	4,756.35	65.4372
4,924.8	93.4763	4,924.8	91.177	4,924.8	91.6743	4,924.8	92.364	4,924.8	91.5385	4,924.8	91.8077	4,924.8	92.5559	4,924.8	88.7288	4,924.8	89.7073	4,924.8	89.4419	4,924.8	88.3715	4,924.8	89.6904	4,924.8	89.6979	4,924.8	87.1482	4,924.8	88.198	4,924.8	84.4538	4,924.8	84.4513	4,924.8	79.9539	4,924.8	81.0874	4,924.8	76.1389	4,924.8	78.495	4,924.8	74.8177	4,924.8	75.4364	4,924.8	71.061	4,924.8	71.2556	4,924.8	72.5478	4,924.8	72.2329	4,924.8	68.0577	4,924.8	73.391	4,924.8	68.92	4,924.8	69.354	4,924.8	62.9509	4,924.8	66.8652	4,924.8	62.442	4,924.8	62.56	4,924.8	61.8159
5,097.66	93.0411	5,097.66	90.2707	5,097.66	91.0696	5,097.66	92.2401	5,097.66	91.3396	5,097.66	91.1883	5,097.66	92.0465	5,097.66	88.2326	5,097.66	88.6744	5,097.66	88.9215	5,097.66	89.0289	5,097.66	88.6797	5,097.66	89.0904	5,097.66	85.5552	5,097.66	86.377	5,097.66	81.2516	5,097.66	82.4908	5,097.66	78.3127	5,097.66	78.3612	5,097.66	74.1844	5,097.66	76.7259	5,097.66	74.9557	5,097.66	73.0583	5,097.66	70.6668	5,097.66	69.0931	5,097.66	71.3587	5,097.66	70.8508	5,097.66	69.9925	5,097.66	72.1763	5,097.66	69.913	5,097.66	69.5043	5,097.66	65.9634	5,097.66	68.8004	5,097.66	57.9036	5,097.66	62.8499	5,097.66	64.1052
5,277.83	92.9128	5,277.83	90.8702	5,277.83	91.3193	5,277.83	92.1816	5,277.83	92.0236	5,277.83	91.3187	5,277.83	91.9402	5,277.83	88.8184	5,277.83	89.1738	5,277.83	89.7993	5,277.83	89.9232	5,277.83	88.2657	5,277.83	89.0608	5,277.83	85.1182	5,277.83	85.4229	5,277.83	80.2783	5,277.83	81.4348	5,277.83	76.648	5,277.83	76.8938	5,277.83	74.1186	5,277.83	75.0732	5,277.83	73.0366	5,277.83	71.54	5,277.83	69.7737	5,277.83	71.094	5,277.83	67.6365	5,277.83	70.5895	5,277.83	68.3641	5,277.83	71.0132	5,277.83	68.4026	5,277.83	64.282	5,277.83	60.5279	5,277.83	65.2155	5,277.83	59.7182	5,277.83	65.5202	5,277.83	62.9135
5,463.87	92.5847	5,463.87	91.0294	5,463.87	91.3623	5,463.87	92.4859	5,463.87	91.7548	5,463.87	90.7413	5,463.87	91.3044	5,463.87	89.3351	5,463.87	88.9145	5,463.87	89.6478	5,463.87	89.3053	5,463.87	87.1483	5,463.87	88.5639	5,463.87	83.1594	5,463.87	85.277	5,463.87	80.2152	5,463.87	81.0892	5,463.87	76.7456	5,463.87	78.5152	5,463.87	75.0947	5,463.87	75.551	5,463.87	71.563	5,463.87	71.6595	5,463.87	70.4581	5,463.87	71.6734	5,463.87	69.3885	5,463.87	70.0295	5,463.87	69.3227	5,463.87	70.484	5,463.87	69.5115	5,463.87	65.8155	5,463.87	63.2755	5,463.87	64.0417	5,463.87	63.6101	5,463.87	60.1997	5,463.87	61.3571
5,657.23	92.3614	5,657.23	91.1086	5,657.23	91.8239	5,657.23	92.2287	5,657.23	91.6018	5,657.23	90.1855	5,657.23	91.0204	5,657.23	89.6659	5,657.23	89.8332	5,657.23	89.442	5,657.23	89.4976	5,657.23	86.3779	5,657.23	87.6885	5,657.23	84.0608	5,657.23	85.1657	5,657.23	80.807	5,657.23	82.5007	5,657.23	78.6173	5,657.23	80.4213	5,657.23	74.6891	5,657.23	76.5393	5,657.23	71.2931	5,657.23	73.2672	5,657.23	71.1245	5,657.23	71.1594	5,657.23	69.498	5,657.23	70.973	5,657.23	68.9178	5,657.23	71.017	5,657.23	68.946	5,657.23	62.5076	5,657.23	58.38	5,657.23	64.2904	5,657.23	62.331	5,657.23	57.0231	5,657.23	57.9968
5,856.45	90.858	5,856.45	91.5841	5,856.45	91.1322	5,856.45	90.126	5,856.45	90.8762	5,856.45	90.3188	5,856.45	90.5012	5,856.45	89.4524	5,856.45	90.1068	5,856.45	87.8654	5,856.45	88.6014	5,856.45	85.8716	5,856.45	86.6453	5,856.45	84.4454	5,856.45	85.8171	5,856.45	81.9946	5,856.45	83.001	5,856.45	78.9147	5,856.45	79.1787	5,856.45	75.8118	5,856.45	76.4932	5,856.45	72.6216	5,856.45	74.7226	5,856.45	68.8495	5,856.45	71.9685	5,856.45	68.6305	5,856.45	69.782	5,856.45	70.2897	5,856.45	70.1994	5,856.45	66.1748	5,856.45	65.0699	5,856.45	62.4011	5,856.45	62.505	5,856.45	59.4304	5,856.45	51.1926	5,856.45	56.0006
6,062.99	89.6025	6,062.99	92.4314	6,062.99	91.9814	6,062.99	89.1328	6,062.99	89.4803	6,062.99	91.7236	6,062.99	90.6727	6,062.99	88.8791	6,062.99	89.6565	6,062.99	87.697	6,062.99	86.9953	6,062.99	87.9396	6,062.99	87.527	6,062.99	86.2669	6,062.99	87.2238	6,062.99	83.5986	6,062.99	84.2424	6,062.99	78.2727	6,062.99	80.0756	6,062.99	75.1797	6,062.99	77.4659	6,062.99	71.1382	6,062.99	73.9404	6,062.99	70.7162	6,062.99	71.0074	6,062.99	69.753	6,062.99	67.4593	6,062.99	70.1908	6,062.99	69.3729	6,062.99	63.8843	6,062.99	64.8285	6,062.99	61.9363	6,062.99	61.5717	6,062.99	61.1546	6,062.99	52.8307	6,062.99	48.0783
6,276.86	89.2597	6,276.86	92.098	6,276.86	92.2002	6,276.86	89.7664	6,276.86	89.858	6,276.86	91.4278	6,276.86	91.495	6,276.86	88.5845	6,276.86	89.3776	6,276.86	87.9931	6,276.86	88.168	6,276.86	88.8129	6,276.86	88.7599	6,276.86	86.4179	6,276.86	87.3657	6,276.86	82.083	6,276.86	83.8306	6,276.86	75.6824	6,276.86	78.4867	6,276.86	73.5637	6,276.86	74.9993	6,276.86	69.7512	6,276.86	71.2203	6,276.86	69.5492	6,276.86	69.412	6,276.86	65.3473	6,276.86	68.5786	6,276.86	66.5072	6,276.86	67.7114	6,276.86	63.2112	6,276.86	60.2702	6,276.86	46.3016	6,276.86	60.179	6,276.86	58.0053	6,276.86	54.5172	6,276.86	46.1403
6,498.05	89.3448	6,498.05	90.8893	6,498.05	91.3896	6,498.05	89.3256	6,498.05	89.7559	6,498.05	90.6437	6,498.05	91.2435	6,498.05	88.4158	6,498.05	89.2667	6,498.05	87.811	6,498.05	88.1265	6,498.05	87.6397	6,498.05	88.4978	6,498.05	83.9493	6,498.05	86.0506	6,498.05	78.7045	6,498.05	80.9132	6,498.05	74.548	6,498.05	76.0535	6,498.05	71.8313	6,498.05	71.2853	6,498.05	70.2435	6,498.05	69.1892	6,498.05	65.3122	6,498.05	69.3765	6,498.05	64.287	6,498.05	67.5315	6,498.05	65.9165	6,498.05	68.6902	6,498.05	64.2765	6,498.05	62.209	6,498.05	57.8473	6,498.05	57.5788	6,498.05	61.0527	6,498.05	55.6255	6,498.05	53.9622
6,726.56	90.1081	6,726.56	91.293	6,726.56	91.3559	6,726.56	90.4058	6,726.56	89.801	6,726.56	90.6982	6,726.56	91.1901	6,726.56	88.7452	6,726.56	89.0293	6,726.56	88.3528	6,726.56	88.3129	6,726.56	87.3344	6,726.56	87.4489	6,726.56	82.415	6,726.56	82.9226	6,726.56	77.6083	6,726.56	79.9967	6,726.56	76.1523	6,726.56	76.1496	6,726.56	69.1366	6,726.56	72.7966	6,726.56	70.2071	6,726.56	70.4162	6,726.56	69.7346	6,726.56	70.5575	6,726.56	66.7761	6,726.56	67.9268	6,726.56	64.5004	6,726.56	66.2001	6,726.56	61.7862	6,726.56	60.4796	6,726.56	55.7914	6,726.56	61.8442	6,726.56	55.8849	6,726.56	52.8192	6,726.56	33.5329
6,963.87	90.9956	6,963.87	90.8191	6,963.87	91.2253	6,963.87	91.38	6,963.87	91.1215	6,963.87	90.2746	6,963.87	90.8731	6,963.87	90.1003	6,963.87	90.2663	6,963.87	87.8239	6,963.87	88.812	6,963.87	84.9833	6,963.87	87.0745	6,963.87	83.6539	6,963.87	83.9367	6,963.87	81.6676	6,963.87	82.0574	6,963.87	77.3889	6,963.87	78.431	6,963.87	72.7145	6,963.87	74.9689	6,963.87	72.6309	6,963.87	71.3024	6,963.87	69.8479	6,963.87	70.8012	6,963.87	65.8999	6,963.87	64.7996	6,963.87	65.4162	6,963.87	68.7764	6,963.87	61.2437	6,963.87	64.0945	6,963.87	63.4848	6,963.87	61.6104	6,963.87	53.576	6,963.87	58.1419	6,963.87	47.0755
7,209.96	90.7816	7,209.96	89.756	7,209.96	90.383	7,209.96	91.2047	7,209.96	91.4728	7,209.96	89.7253	7,209.96	89.6681	7,209.96	90.2275	7,209.96	90.168	7,209.96	85.1962	7,209.96	86.8036	7,209.96	85.448	7,209.96	86.9242	7,209.96	84.655	7,209.96	86.1817	7,209.96	80.9538	7,209.96	82.2114	7,209.96	75.6054	7,209.96	78.6651	7,209.96	72.0157	7,209.96	73.3835	7,209.96	72.2858	7,209.96	70.44	7,209.96	70.5362	7,209.96	70.2112	7,209.96	67.8777	7,209.96	62.2528	7,209.96	65.5108	7,209.96	67.0916	7,209.96	63.2988	7,209.96	63.6447	7,209.96	62.2992	7,209.96	62.2335	7,209.96	58.3416	7,209.96	59.6423	7,209.96	51.0299
7,464.84	90.8712	7,464.84	89.7024	7,464.84	89.8732	7,464.84	91.029	7,464.84	91.1027	7,464.84	89.2114	7,464.84	89.1538	7,464.84	88.7766	7,464.84	89.7496	7,464.84	84.8462	7,464.84	84.6589	7,464.84	85.7782	7,464.84	86.4819	7,464.84	83.9682	7,464.84	84.9547	7,464.84	77.7182	7,464.84	80.5826	7,464.84	75.5287	7,464.84	77.1601	7,464.84	69.3497	7,464.84	71.7837	7,464.84	70.5919	7,464.84	69.6125	7,464.84	70.4549	7,464.84	65.9797	7,464.84	67.3125	7,464.84	60.9214	7,464.84	62.9383	7,464.84	64.4597	7,464.84	65.2929	7,464.84	60.6175	7,464.84	55.0149	7,464.84	59.3165	7,464.84	56.2179	7,464.84	53.8221	7,464.84	54.984
7,727.05	90.428	7,727.05	89.6984	7,727.05	89.945	7,727.05	90.0744	7,727.05	90.9469	7,727.05	88.9221	7,727.05	88.8898	7,727.05	87.1269	7,727.05	89.2032	7,727.05	85.357	7,727.05	85.0864	7,727.05	84.8216	7,727.05	86.1931	7,727.05	81.8121	7,727.05	83.5926	7,727.05	76.4146	7,727.05	78.3941	7,727.05	72.9495	7,727.05	75.5649	7,727.05	69.5761	7,727.05	73.151	7,727.05	69.5601	7,727.05	70.849	7,727.05	68.1841	7,727.05	63.8705	7,727.05	63.8973	7,727.05	44.7876	7,727.05	60.1258	7,727.05	60.5824	7,727.05	62.9724	7,727.05	61.3128	7,727.05	53.4229	7,727.05	58.5486	7,727.05	56.7972	7,727.05	52.3177	7,727.05	47.734
7,999.51	91.0979	7,999.51	90.779	7,999.51	91.0264	7,999.51	90.3586	7,999.51	90.9211	7,999.51	90.0956	7,999.51	89.154	7,999.51	86.8491	7,999.51	87.5356	7,999.51	86.4777	7,999.51	87.1349	7,999.51	83.9589	7,999.51	86.0202	7,999.51	80.6017	7,999.51	83.5491	7,999.51	79.3491	7,999.51	79.1732	7,999.51	73.4236	7,999.51	77.8696	7,999.51	73.0847	7,999.51	74.6538	7,999.51	70.9491	7,999.51	70.4517	7,999.51	68.5487	7,999.51	62.1931	7,999.51	62.4591	7,999.51	58.9564	7,999.51	60.6412	7,999.51	61.827	7,999.51	65.0257	7,999.51	61.7354	7,999.51	59.8561	7,999.51	63.2076	7,999.51	59.9576	7,999.51	51.5155	7,999.51	56.5516
8,282.23	90.5929	8,282.23	90.7834	8,282.23	91.1075	8,282.23	90.3922	8,282.23	90.46	8,282.23	89.6911	8,282.23	89.6838	8,282.23	88.7891	8,282.23	88.0591	8,282.23	86.5256	8,282.23	87.9849	8,282.23	84.6919	8,282.23	84.1751	8,282.23	83.7591	8,282.23	85.5018	8,282.23	80.7027	8,282.23	80.6093	8,282.23	74.9915	8,282.23	78.2162	8,282.23	72.5373	8,282.23	73.8054	8,282.23	70.5054	8,282.23	69.4208	8,282.23	67.854	8,282.23	60.687	8,282.23	63.2705	8,282.23	63.9716	8,282.23	60.896	8,282.23	60.3952	8,282.23	65.9746	8,282.23	61.0217	8,282.23	60.7344	8,282.23	61.504	8,282.23	60.622	8,282.23	56.8143	8,282.23	54.6533
8,573.73	90.5534	8,573.73	90.5377	8,573.73	90.9059	8,573.73	90.2788	8,573.73	90.802	8,573.73	88.9484	8,573.73	89.7242	8,573.73	88.7645	8,573.73	88.4399	8,573.73	84.9457	8,573.73	86.5335	8,573.73	85.9589	8,573.73	85.4055	8,573.73	82.4208	8,573.73	83.5925	8,573.73	77.5564	8,573.73	78.2543	8,573.73	72.1837	8,573.73	74.5905	8,573.73	70.9442	8,573.73	70.7875	8,573.73	66.518	8,573.73	63.7276	8,573.73	59.5759	8,573.73	56.6201	8,573.73	55.4857	8,573.73	64.2315	8,573.73	58.7067	8,573.73	56.7386	8,573.73	59.1831	8,573.73	51.7762	8,573.73	59.4291	8,573.73	53.508	8,573.73	60.513	8,573.73	53.9322	8,573.73	56.0114
8,876.95	90.4729	8,876.95	90.6685	8,876.95	90.7355	8,876.95	90.5971	8,876.95	91.329	8,876.95	88.6852	8,876.95	89.2612	8,876.95	88.7985	8,876.95	89.0279	8,876.95	85.1247	8,876.95	85.7705	8,876.95	85.0259	8,876.95	85.2523	8,876.95	79.3292	8,876.95	82.0677	8,876.95	71.2582	8,876.95	75.8812	8,876.95	68.5766	8,876.95	72.6056	8,876.95	69.0187	8,876.95	67.4955	8,876.95	59.4468	8,876.95	64.1114	8,876.95	55.7165	8,876.95	60.6824	8,876.95	55.9817	8,876.95	66.3786	8,876.95	44.7139	8,876.95	52.617	8,876.95	57.9591	8,876.95	57.7986	8,876.95	57.8999	8,876.95	50.8924	8,876.95	59.0412	8,876.95	42.1858	8,876.95	52.6223
9,188.96	90.8187	9,188.96	91.0607	9,188.96	90.6892	9,188.96	90.4419	9,188.96	91.1768	9,188.96	89.3783	9,188.96	89.9056	9,188.96	88.954	9,188.96	89.3016	9,188.96	85.9988	9,188.96	86.8928	9,188.96	83.0595	9,188.96	84.9236	9,188.96	78.1513	9,188.96	80.6908	9,188.96	76.4799	9,188.96	76.5417	9,188.96	72.0412	9,188.96	74.6086	9,188.96	68.2439	9,188.96	67.5269	9,188.96	63.2661	9,188.96	65.4467	9,188.96	60.3615	9,188.96	63.3014	9,188.96	61.1944	9,188.96	66.7783	9,188.96	53.3518	9,188.96	53.41	9,188.96	59.7374	9,188.96	57.8106	9,188.96	53.2301	9,188.96	39.2227	9,188.96	57.1147	9,188.96	50.1156	9,188.96	51.2677
9,514.16	91.5394	9,514.16	90.8534	9,514.16	90.9214	9,514.16	90.6102	9,514.16	90.6212	9,514.16	90.0483	9,514.16	90.621	9,514.16	89.0655	9,514.16	89.3574	9,514.16	86.1048	9,514.16	87.5295	9,514.16	81.9106	9,514.16	82.4062	9,514.16	82.1928	9,514.16	83.8573	9,514.16	78.0232	9,514.16	79.3608	9,514.16	72.501	9,514.16	74.9574	9,514.16	68.988	9,514.16	70.0083	9,514.16	64.7187	9,514.16	62.6191	9,514.16	63.785	9,514.16	52.8738	9,514.16	61.5968	9,514.16	62.9401	9,514.16	50.9109	9,514.16	45.3522	9,514.16	60.7308	9,514.16	56.5803	9,514.16	46.5623	9,514.16	51.5621	9,514.16	36.0622	9,514.16	37.7465	9,514.16	49.9111
9,849.61	91.353	9,849.61	90.7693	9,849.61	90.8736	9,849.61	90.5196	9,849.61	90.5843	9,849.61	90.0303	9,849.61	90.4883	9,849.61	88.6873	9,849.61	89.2305	9,849.61	84.8053	9,849.61	86.8208	9,849.61	83.5951	9,849.61	83.2491	9,849.61	80.3798	9,849.61	82.5795	9,849.61	75.7159	9,849.61	75.6069	9,849.61	70.6057	9,849.61	71.3903	9,849.61	68.8673	9,849.61	67.6567	9,849.61	64.8101	9,849.61	62.2997	9,849.61	59.8315	9,849.61	56.0028	9,849.61	58.8697	9,849.61	60.8205	9,849.61	48.6165	9,849.61	51.5613	9,849.61	52.5638	9,849.61	45.1116	9,849.61	52.176	9,849.61	50.9619	9,849.61	53.3233	9,849.61	48.2765	9,849.61	42.2118
10,196.8	91.054	10,196.8	90.571	10,196.8	90.8447	10,196.8	90.2293	10,196.8	90.3994	10,196.8	89.7107	10,196.8	90.2576	10,196.8	88.455	10,196.8	89.0885	10,196.8	84.1054	10,196.8	85.4446	10,196.8	83.8463	10,196.8	83.9904	10,196.8	77.9368	10,196.8	79.4916	10,196.8	73.7441	10,196.8	75.7766	10,196.8	71.8902	10,196.8	74.0753	10,196.8	68.4698	10,196.8	67.1718	10,196.8	62.427	10,196.8	61.1788	10,196.8	57.2501	10,196.8	62.4336	10,196.8	55.2804	10,196.8	65.9184	10,196.8	47.7517	10,196.8	53.8383	10,196.8	53.898	10,196.8	51.689	10,196.8	53.2941	10,196.8	54.5812	10,196.8	53.2488	10,196.8	40.7044	10,196.8	48.6193
10,555.7	91.4078	10,555.7	90.696	10,555.7	90.9664	10,555.7	90.2645	10,555.7	90.2021	10,555.7	89.6291	10,555.7	90.1411	10,555.7	87.7061	10,555.7	88.8324	10,555.7	85.0933	10,555.7	85.7243	10,555.7	81.1298	10,555.7	82.5441	10,555.7	81.4409	10,555.7	81.0419	10,555.7	77.0313	10,555.7	78.3851	10,555.7	73.3428	10,555.7	74.2813	10,555.7	67.2681	10,555.7	66.2846	10,555.7	61.1899	10,555.7	64.2015	10,555.7	55.9186	10,555.7	63.7084	10,555.7	59.4721	10,555.7	65.7104	10,555.7	47.2138	10,555.7	56.8019	10,555.7	48.342	10,555.7	43.7725	10,555.7	57.8087	10,555.7	47.3235	10,555.7	54.4291	10,555.7	41.7949	10,555.7	45.5486
10,927.7	91.4544	10,927.7	90.6569	10,927.7	91.1245	10,927.7	90.0843	10,927.7	90.5043	10,927.7	89.0518	10,927.7	89.622	10,927.7	86.9887	10,927.7	87.991	10,927.7	84.3441	10,927.7	85.5177	10,927.7	81.1268	10,927.7	80.7291	10,927.7	81.2472	10,927.7	81.7905	10,927.7	73.1386	10,927.7	74.7007	10,927.7	69.1651	10,927.7	68.9991	10,927.7	63.5243	10,927.7	62.1995	10,927.7	61.2215	10,927.7	63.0449	10,927.7	53.4064	10,927.7	60.4005	10,927.7	57.2922	10,927.7	61.3918	10,927.7	53.3965	10,927.7	51.633	10,927.7	50.5508	10,927.7	53.7225	10,927.7	55.47	10,927.7	52.1511	10,927.7	48.3276	10,927.7	47.3075	10,927.7	42.8799
11,313	91.1554	11,313	90.4018	11,313	90.9232	11,313	89.6822	11,313	90.3927	11,313	88.7132	11,313	89.4106	11,313	86.7255	11,313	87.493	11,313	83.9121	11,313	84.5772	11,313	81.8707	11,313	81.9975	11,313	74.1379	11,313	77.6056	11,313	73.7502	11,313	74.0891	11,313	68.8784	11,313	71.5189	11,313	66.1384	11,313	67.2134	11,313	64.3847	11,313	64.4263	11,313	56.1307	11,313	58.8639	11,313	59.4722	11,313	65.3132	11,313	57.0492	11,313	57.0935	11,313	40.9319	11,313	53.6836	11,313	53.4876	11,313	53.6006	11,313	49.0134	11,313	45.9406	11,313	36.6536
11,712.9	91.0586	11,712.9	89.5351	11,712.9	90.968	11,712.9	89.5186	11,712.9	89.9022	11,712.9	87.9784	11,712.9	88.5025	11,712.9	86.4328	11,712.9	86.7017	11,712.9	83.658	11,712.9	83.7997	11,712.9	80.1908	11,712.9	81.5131	11,712.9	79.2461	11,712.9	79.1347	11,712.9	77.7095	11,712.9	77.7189	11,712.9	72.2184	11,712.9	72.568	11,712.9	65.2505	11,712.9	66.5277	11,712.9	63.2253	11,712.9	64.4032	11,712.9	55.2155	11,712.9	60.0972	11,712.9	56.6557	11,712.9	61.8892	11,712.9	51.1572	11,712.9	56.3929	11,712.9	55.7734	11,712.9	50.0839	11,712.9	50.4967	11,712.9	55.8969	11,712.9	47.3214	11,712.9	50.0721	11,712.9	49.3545
12,126	90.8107	12,126	89.6372	12,126	90.4464	12,126	89.12	12,126	89.6249	12,126	87.6886	12,126	88.1411	12,126	86.0687	12,126	87.0147	12,126	84.4454	12,126	84.7861	12,126	79.8527	12,126	81.0118	12,126	80.209	12,126	81.1071	12,126	74.0005	12,126	72.3857	12,126	68.9733	12,126	67.6733	12,126	61.9688	12,126	64.5497	12,126	58.3364	12,126	62.2417	12,126	58.2932	12,126	54.9152	12,126	57.4179	12,126	63.2011	12,126	52.9844	12,126	53.0784	12,126	36.4727	12,126	55.6995	12,126	48.9291	12,126	52.3189	12,126	53.5787	12,126	53.0281	12,126	45.7495
12,553.7	90.2163	12,553.7	89.2241	12,553.7	90.0007	12,553.7	88.5916	12,553.7	88.9303	12,553.7	87.4459	12,553.7	87.9364	12,553.7	86.6032	12,553.7	87.0187	12,553.7	83.4612	12,553.7	84.2365	12,553.7	81.3122	12,553.7	82.4642	12,553.7	76.6588	12,553.7	78.908	12,553.7	73.349	12,553.7	74.2256	12,553.7	67.7826	12,553.7	70.2252	12,553.7	65.2106	12,553.7	67.2907	12,553.7	59.3325	12,553.7	63.8635	12,553.7	59.9515	12,553.7	58.8097	12,553.7	58.5538	12,553.7	62.2395	12,553.7	35.0076	12,553.7	55.4984	12,553.7	49.7029	12,553.7	54.347	12,553.7	40.5772	12,553.7	43.7524	12,553.7	50.0222	12,553.7	54.3435	12,553.7	43.987
12,996.1	89.5476	12,996.1	89.0647	12,996.1	89.3962	12,996.1	88.5539	12,996.1	88.6488	12,996.1	87.4435	12,996.1	87.1511	12,996.1	86.6493	12,996.1	86.3005	12,996.1	83.699	12,996.1	83.2947	12,996.1	79.7015	12,996.1	82.4982	12,996.1	77.9082	12,996.1	78.8768	12,996.1	74.496	12,996.1	74.7431	12,996.1	69.1404	12,996.1	68.9893	12,996.1	65.7846	12,996.1	64.0111	12,996.1	60.3781	12,996.1	60.528	12,996.1	58.4255	12,996.1	56.1346	12,996.1	61.1257	12,996.1	59.569	12,996.1	42.7547	12,996.1	54.9053	12,996.1	54.028	12,996.1	55.8938	12,996.1	46.9676	12,996.1	49.5905	12,996.1	51.0187	12,996.1	51.6946	12,996.1	48.9694
13,454.6	89.5418	13,454.6	88.807	13,454.6	89.1442	13,454.6	88.2488	13,454.6	88.1474	13,454.6	86.8158	13,454.6	86.1621	13,454.6	85.8103	13,454.6	85.6441	13,454.6	83.2592	13,454.6	83.6674	13,454.6	78.8273	13,454.6	80.0383	13,454.6	77.5266	13,454.6	80.3991	13,454.6	66.4104	13,454.6	70.754	13,454.6	67.6544	13,454.6	68.3413	13,454.6	56.488	13,454.6	61.6618	13,454.6	54.4723	13,454.6	59.8348	13,454.6	53.9377	13,454.6	57.5048	13,454.6	57.5155	13,454.6	63.2285	13,454.6	52.9835	13,454.6	53.0534	13,454.6	43.2446	13,454.6	57.5032	13,454.6	52.4269	13,454.6	55.4362	13,454.6	51.3483	13,454.6	51.9064	13,454.6	51.7216
13,929.2	89.8489	13,929.2	89.237	13,929.2	89.6078	13,929.2	87.8398	13,929.2	87.9264	13,929.2	86.7468	13,929.2	86.6975	13,929.2	86.2517	13,929.2	85.4088	13,929.2	82.4248	13,929.2	83.3364	13,929.2	80.7845	13,929.2	81.3258	13,929.2	76.6246	13,929.2	76.5804	13,929.2	75.5333	13,929.2	76.7466	13,929.2	70.6018	13,929.2	70.6333	13,929.2	63.6757	13,929.2	67.1248	13,929.2	59.7028	13,929.2	62.0471	13,929.2	55.6263	13,929.2	57.4554	13,929.2	54.3017	13,929.2	62.436	13,929.2	45.3364	13,929.2	53.5337	13,929.2	52.4705	13,929.2	53.7404	13,929.2	58.0527	13,929.2	46.7821	13,929.2	57.5941	13,929.2	56.1908	13,929.2	50.485
14,419.9	89.9744	14,419.9	89.7891	14,419.9	90.1036	14,419.9	87.9259	14,419.9	88.6396	14,419.9	86.9891	14,419.9	86.7565	14,419.9	86.1006	14,419.9	85.7944	14,419.9	82.7852	14,419.9	83.2348	14,419.9	79.6414	14,419.9	80.1974	14,419.9	79.2635	14,419.9	79.7879	14,419.9	73.2319	14,419.9	72.8023	14,419.9	68.3062	14,419.9	67.0434	14,419.9	55.7032	14,419.9	64.1118	14,419.9	58.3755	14,419.9	58	14,419.9	42.8351	14,419.9	55.7519	14,419.9	55.9733	14,419.9	57.9526	14,419.9	49.1363	14,419.9	49.2604	14,419.9	45.6484	14,419.9	42.4946	14,419.9	53.9698	14,419.9	51.9321	14,419.9	56.9912	14,419.9	52.7829	14,419.9	49.718
14,928.2	89.8412	14,928.2	89.6626	14,928.2	89.7824	14,928.2	87.872	14,928.2	88.9509	14,928.2	87.0901	14,928.2	86.4388	14,928.2	85.933	14,928.2	85.6769	14,928.2	82.0482	14,928.2	83.922	14,928.2	81.147	14,928.2	81.1694	14,928.2	76.545	14,928.2	78.5294	14,928.2	74.9993	14,928.2	75.2329	14,928.2	70.0214	14,928.2	71.797	14,928.2	63.4431	14,928.2	67.6987	14,928.2	58.5549	14,928.2	62.5023	14,928.2	46.3166	14,928.2	56.0913	14,928.2	46.8699	14,928.2	58.6807	14,928.2	38.2054	14,928.2	51.3076	14,928.2	52.6191	14,928.2	46.4661	14,928.2	56.1472	14,928.2	49.7902	14,928.2	56.8101	14,928.2	51.8038	14,928.2	48.015
15,455.6	90.1937	15,455.6	89.3232	15,455.6	90.1765	15,455.6	87.8871	15,455.6	88.6108	15,455.6	86.2926	15,455.6	86.9076	15,455.6	85.3217	15,455.6	85.7613	15,455.6	81.4912	15,455.6	82.9895	15,455.6	79.6366	15,455.6	81.1722	15,455.6	78.4213	15,455.6	78.9901	15,455.6	74.2461	15,455.6	73.8435	15,455.6	67.8328	15,455.6	66.8645	15,455.6	59.5537	15,455.6	62.991	15,455.6	59.7448	15,455.6	57.3619	15,455.6	54.5469	15,455.6	49.0544	15,455.6	51.0413	15,455.6	52.161	15,455.6	49.9453	15,455.6	39.4715	15,455.6	52.2788	15,455.6	50.2424	15,455.6	53.6606	15,455.6	47.7505	15,455.6	52.2162	15,455.6	51.6668	15,455.6	40.8201
16,000.5	89.9829	16,000.5	88.9338	16,000.5	90.1523	16,000.5	87.4847	16,000.5	88.4225	16,000.5	85.458	16,000.5	86.8336	16,000.5	84.3583	16,000.5	85.4271	16,000.5	81.84	16,000.5	83.1262	16,000.5	80.4247	16,000.5	81.0643	16,000.5	76.2915	16,000.5	79.0129	16,000.5	71.1893	16,000.5	71.0641	16,000.5	66.7691	16,000.5	68.4843	16,000.5	59.3996	16,000.5	62.0337	16,000.5	54.4902	16,000.5	57.0381	16,000.5	48.4083	16,000.5	53.5621	16,000.5	51.3841	16,000.5	45.177	16,000.5	52.8922	16,000.5	41.2715	16,000.5	49.4107	16,000.5	52.5006	16,000.5	49.4235	16,000.5	53.3567	16,000.5	49.014	16,000.5	50.5592	16,000.5	45.5904
16,564.5	90.281	16,564.5	89.0151	16,564.5	90.0909	16,564.5	87.1911	16,564.5	88.8668	16,564.5	85.1711	16,564.5	87.1164	16,564.5	83.735	16,564.5	85.3154	16,564.5	81.6756	16,564.5	83.157	16,564.5	79.9558	16,564.5	81.0346	16,564.5	75.2402	16,564.5	77.2896	16,564.5	72.1657	16,564.5	72.8027	16,564.5	62.0312	16,564.5	63.2643	16,564.5	57.2498	16,564.5	59.223	16,564.5	54.9077	16,564.5	55.0122	16,564.5	44.2565	16,564.5	53.944	16,564.5	50.2975	16,564.5	51.7007	16,564.5	51.5879	16,564.5	39.5645	16,564.5	37.5638	16,564.5	52.3994	16,564.5	47.0895	16,564.5	51.5559	16,564.5	46.1684	16,564.5	46.7254	16,564.5	46.4119
17,148.9	90.3444	17,148.9	89.1799	17,148.9	90.3118	17,148.9	87.2053	17,148.9	88.6996	17,148.9	84.7271	17,148.9	87.0394	17,148.9	83.7684	17,148.9	85.6959	17,148.9	81.6195	17,148.9	83.062	17,148.9	78.3005	17,148.9	79.5281	17,148.9	74.1458	17,148.9	77.4433	17,148.9	65.7186	17,148.9	71.9682	17,148.9	63.7781	17,148.9	67.4557	17,148.9	59.0834	17,148.9	61.0551	17,148.9	48.2895	17,148.9	51.689	17,148.9	46.7736	17,148.9	54.2516	17,148.9	47.0683	17,148.9	55.2202	17,148.9	46.9224	17,148.9	44.6175	17,148.9	49.0887	17,148.9	53.629	17,148.9	51.3399	17,148.9	48.3909	17,148.9	49.1552	17,148.9	50.4322	17,148.9	44.4286
17,752.4	90.2942	17,752.4	88.8401	17,752.4	90.3045	17,752.4	87.1712	17,752.4	88.7268	17,752.4	84.4381	17,752.4	86.6071	17,752.4	82.7244	17,752.4	84.1313	17,752.4	80.1047	17,752.4	81.8428	17,752.4	76.066	17,752.4	77.8712	17,752.4	73.1653	17,752.4	74.5491	17,752.4	68.2637	17,752.4	73.1277	17,752.4	60.4409	17,752.4	64.4871	17,752.4	53.9568	17,752.4	58.7448	17,752.4	37.8567	17,752.4	52.4081	17,752.4	41.0238	17,752.4	50.1114	17,752.4	47.8505	17,752.4	51.6816	17,752.4	46.2115	17,752.4	46.6339	17,752.4	46.0965	17,752.4	49.4419	17,752.4	47.5599	17,752.4	50.5833	17,752.4	38.7997	17,752.4	39.8677	17,752.4	41.9811
18,379.4	90.08	18,379.4	88.8294	18,379.4	89.8247	18,379.4	86.6965	18,379.4	88.2709	18,379.4	83.6438	18,379.4	85.5754	18,379.4	81.9982	18,379.4	82.6067	18,379.4	78.4804	18,379.4	79.5409	18,379.4	74.0705	18,379.4	75.154	18,379.4	71.3203	18,379.4	74.2244	18,379.4	66.643	18,379.4	70.3907	18,379.4	62.4624	18,379.4	65.9944	18,379.4	54.282	18,379.4	55.7892	18,379.4	41.586	18,379.4	46.8866	18,379.4	42.7132	18,379.4	41.4753	18,379.4	50.3051	18,379.4	47.8919	18,379.4	41.473	18,379.4	34.5045	18,379.4	46.5361	18,379.4	36.8385	18,379.4	45.2532	18,379.4	45.2053	18,379.4	37.7749	18,379.4	43.4342	18,379.4	40.5726
19,026.9	89.7145	19,026.9	88.4361	19,026.9	89.4426	19,026.9	86.3589	19,026.9	87.4995	19,026.9	82.1312	19,026.9	84.0712	19,026.9	80.0661	19,026.9	81.0363	19,026.9	75.2201	19,026.9	77.6092	19,026.9	71.7123	19,026.9	74.114	19,026.9	69.0971	19,026.9	72.288	19,026.9	62.2647	19,026.9	68.4906	19,026.9	54.0682	19,026.9	59.9655	19,026.9	49.4788	19,026.9	51.6963	19,026.9	41.2476	19,026.9	35.0318	19,026.9	38.498	19,026.9	38.3673	19,026.9	43.4016	19,026.9	50.8875	19,026.9	40.9476	19,026.9	40.7018	19,026.9	44.4865	19,026.9	47.2331	19,026.9	41.6266	19,026.9	48.1781	19,026.9	43.1219	19,026.9	37.4765	19,026.9	37.7256
19,697.8	89.1815	19,697.8	87.9603	19,697.8	89.0279	19,697.8	85.5753	19,697.8	86.8115	19,697.8	81.1016	19,697.8	82.8689	19,697.8	78.4076	19,697.8	79.2333	19,697.8	72.4101	19,697.8	75.5566	19,697.8	71.1322	19,697.8	72.6836	19,697.8	65.8931	19,697.8	70.2413	19,697.8	62.9003	19,697.8	64.8311	19,697.8	54.4389	19,697.8	61.0549	19,697.8	49.8888	19,697.8	49.1641	19,697.8	44.3924	19,697.8	40.7305	19,697.8	38.1366	19,697.8	36.746	19,697.8	36.4857	19,697.8	48.1299	19,697.8	27.2001	19,697.8	28.9607	19,697.8	41.0909	19,697.8	43.7547	19,697.8	45.5743	19,697.8	50.1967	19,697.8	44.0709	19,697.8	40.9533	19,697.8	42.8504
19,999.5	88.6958	19,999.5	87.6824	19,999.5	88.7868	19,999.5	84.3666	19,999.5	85.9893	19,999.5	80.5424	19,999.5	82.8249	19,999.5	77.2191	19,999.5	78.1305	19,999.5	72.6421	19,999.5	74.1025	19,999.5	70.6622	19,999.5	73.1887	19,999.5	66.1302	19,999.5	68.7545	19,999.5	61.5225	19,999.5	65.9055	19,999.5	51.3994	19,999.5	58.7175	19,999.5	46.9803	19,999.5	54.9096	19,999.5	56.5031	19,999.5	49.3917	19,999.5	39.8243	19,999.5	49.5483	19,999.5	49.5724	19,999.5	58.0811	19,999.5	50.4672	19,999.5	53.0323	19,999.5	49.5078	19,999.5	48.0524	19,999.5	50.0719	19,999.5	53.7427	19,999.5	49.411	19,999.5	44.0948	19,999.5	44.7687
