"SPL Horizontal"
"On-Axis"		"10°"		"-10°"		"20°"		"-20°"		"30°"		"-30°"		"40°"		"-40°"		"50°"		"-50°"		"60°"		"-60°"		"70°"		"-70°"		"80°"		"-80°"		"90°"		"-90°"		"100°"		"-100°"		"110°"		"-110°"		"120°"		"-120°"		"130°"		"-130°"		"140°"		"-140°"		"150°"		"-150°"		"160°"		"-160°"		"170°"		"-170°"		"180°"
"Frequency / Hz"	"Sound Pressure Level / dB (re 20 µPa/V)  [2.83  V @ 1. m]"	"Frequency / Hz"	"Sound Pressure Level / dB (re 20 µPa/V)  [2.83  V @ 1. m]"	"Frequency / Hz"	"Sound Pressure Level / dB (re 20 µPa/V)  [2.83  V @ 1. m]"	"Frequency / Hz"	"Sound Pressure Level / dB (re 20 µPa/V)  [2.83  V @ 1. m]"	"Frequency / Hz"	"Sound Pressure Level / dB (re 20 µPa/V)  [2.83  V @ 1. m]"	"Frequency / Hz"	"Sound Pressure Level / dB (re 20 µPa/V)  [2.83  V @ 1. m]"	"Frequency / Hz"	"Sound Pressure Level / dB (re 20 µPa/V)  [2.83  V @ 1. m]"	"Frequency / Hz"	"Sound Pressure Level / dB (re 20 µPa/V)  [2.83  V @ 1. m]"	"Frequency / Hz"	"Sound Pressure Level / dB (re 20 µPa/V)  [2.83  V @ 1. m]"	"Frequency / Hz"	"Sound Pressure Level / dB (re 20 µPa/V)  [2.83  V @ 1. m]"	"Frequency / Hz"	"Sound Pressure Level / dB (re 20 µPa/V)  [2.83  V @ 1. m]"	"Frequency / Hz"	"Sound Pressure Level / dB (re 20 µPa/V)  [2.83  V @ 1. m]"	"Frequency / Hz"	"Sound Pressure Level / dB (re 20 µPa/V)  [2.83  V @ 1. m]"	"Frequency / Hz"	"Sound Pressure Level / dB (re 20 µPa/V)  [2.83  V @ 1. m]"	"Frequency / Hz"	"Sound Pressure Level / dB (re 20 µPa/V)  [2.83  V @ 1. m]"	"Frequency / Hz"	"Sound Pressure Level / dB (re 20 µPa/V)  [2.83  V @ 1. m]"	"Frequency / Hz"	"Sound Pressure Level / dB (re 20 µPa/V)  [2.83  V @ 1. m]"	"Frequency / Hz"	"Sound Pressure Level / dB (re 20 µPa/V)  [2.83  V @ 1. m]"	"Frequency / Hz"	"Sound Pressure Level / dB (re 20 µPa/V)  [2.83  V @ 1. m]"	"Frequency / Hz"	"Sound Pressure Level / dB (re 20 µPa/V)  [2.83  V @ 1. m]"	"Frequency / Hz"	"Sound Pressure Level / dB (re 20 µPa/V)  [2.83  V @ 1. m]"	"Frequency / Hz"	"Sound Pressure Level / dB (re 20 µPa/V)  [2.83  V @ 1. m]"	"Frequency / Hz"	"Sound Pressure Level / dB (re 20 µPa/V)  [2.83  V @ 1. m]"	"Frequency / Hz"	"Sound Pressure Level / dB (re 20 µPa/V)  [2.83  V @ 1. m]"	"Frequency / Hz"	"Sound Pressure Level / dB (re 20 µPa/V)  [2.83  V @ 1. m]"	"Frequency / Hz"	"Sound Pressure Level / dB (re 20 µPa/V)  [2.83  V @ 1. m]"	"Frequency / Hz"	"Sound Pressure Level / dB (re 20 µPa/V)  [2.83  V @ 1. m]"	"Frequency / Hz"	"Sound Pressure Level / dB (re 20 µPa/V)  [2.83  V @ 1. m]"	"Frequency / Hz"	"Sound Pressure Level / dB (re 20 µPa/V)  [2.83  V @ 1. m]"	"Frequency / Hz"	"Sound Pressure Level / dB (re 20 µPa/V)  [2.83  V @ 1. m]"	"Frequency / Hz"	"Sound Pressure Level / dB (re 20 µPa/V)  [2.83  V @ 1. m]"	"Frequency / Hz"	"Sound Pressure Level / dB (re 20 µPa/V)  [2.83  V @ 1. m]"	"Frequency / Hz"	"Sound Pressure Level / dB (re 20 µPa/V)  [2.83  V @ 1. m]"	"Frequency / Hz"	"Sound Pressure Level / dB (re 20 µPa/V)  [2.83  V @ 1. m]"	"Frequency / Hz"	"Sound Pressure Level / dB (re 20 µPa/V)  [2.83  V @ 1. m]"	"Frequency / Hz"	"Sound Pressure Level / dB (re 20 µPa/V)  [2.83  V @ 1. m]"
20.5078	60.5253	20.5078	60.2076	20.5078	60.6318	20.5078	59.6648	20.5078	60.5361	20.5078	58.8834	20.5078	60.2413	20.5078	57.8693	20.5078	59.7464	20.5078	56.7081	20.5078	59.0529	20.5078	55.7162	20.5078	58.1852	20.5078	55.5534	20.5078	57.2461	20.5078	56.6592	20.5078	56.5255	20.5078	58.5768	20.5078	56.5305	20.5078	60.6453	20.5078	57.5625	20.5078	62.5461	20.5078	59.2942	20.5078	64.1841	20.5078	61.2063	20.5078	65.5395	20.5078	62.9993	20.5078	66.609	20.5078	64.558	20.5078	67.3904	20.5078	65.8444	20.5078	67.8792	20.5078	66.8449	20.5078	68.0707	20.5078	67.5524	20.5078	67.9619
21.9727	57.2183	21.9727	57.2017	21.9727	57.1228	21.9727	57.1657	21.9727	56.9014	21.9727	57.2882	21.9727	56.6227	21.9727	57.7898	21.9727	56.4666	21.9727	58.7957	21.9727	56.7177	21.9727	60.2283	21.9727	57.6057	21.9727	61.887	21.9727	59.0806	21.9727	63.5911	21.9727	60.8735	21.9727	65.2309	21.9727	62.7328	21.9727	66.7506	21.9727	64.5154	21.9727	68.1228	21.9727	66.1577	21.9727	69.3307	21.9727	67.6342	21.9727	70.3608	21.9727	68.9327	21.9727	71.1999	21.9727	70.0441	21.9727	71.8352	21.9727	70.9585	21.9727	72.255	21.9727	71.665	21.9727	72.4506	21.9727	72.1538	21.9727	72.417
23.4375	65.8807	23.4375	65.7921	23.4375	65.9265	23.4375	65.6777	23.4375	65.9293	23.4375	65.5741	23.4375	65.9047	23.4375	65.5396	23.4375	65.8844	23.4375	65.648	23.4375	65.9169	23.4375	65.9698	23.4375	66.063	23.4375	66.5412	23.4375	66.3829	23.4375	67.3438	23.4375	66.9144	23.4375	68.3124	23.4375	67.6535	23.4375	69.3635	23.4375	68.5542	23.4375	70.4198	23.4375	69.5465	23.4375	71.4199	23.4375	70.5577	23.4375	72.3175	23.4375	71.5249	23.4375	73.0779	23.4375	72.398	23.4375	73.6742	23.4375	73.1385	23.4375	74.0862	23.4375	73.717	23.4375	74.3001	23.4375	74.112	23.4375	74.3087
24.9023	67.3004	24.9023	67.2446	24.9023	67.3237	24.9023	67.1754	24.9023	67.3119	24.9023	67.1302	24.9023	67.2774	24.9023	67.1637	24.9023	67.2487	24.9023	67.3408	24.9023	67.2701	24.9023	67.7178	24.9023	67.3985	24.9023	68.3173	24.9023	67.6917	24.9023	69.116	24.9023	68.1883	24.9023	70.0542	24.9023	68.8898	24.9023	71.0586	24.9023	69.7576	24.9023	72.0617	24.9023	70.7278	24.9023	73.0083	24.9023	71.7304	24.9023	73.8553	24.9023	72.7029	24.9023	74.5689	24.9023	73.5933	24.9023	75.122	24.9023	74.3604	24.9023	75.4933	24.9023	74.9718	24.9023	75.6679	24.9023	75.403	24.9023	75.6378
26.3672	70.7826	26.3672	70.7501	26.3672	70.7927	26.3672	70.7095	26.3672	70.7773	26.3672	70.6872	26.3672	70.7443	26.3672	70.7211	26.3672	70.7128	26.3672	70.8566	26.3672	70.714	26.3672	71.1364	26.3672	70.7893	26.3672	71.5864	26.3672	70.9848	26.3672	72.2036	26.3672	71.3392	26.3672	72.9558	26.3672	71.8694	26.3672	73.7918	26.3672	72.5609	26.3672	74.6544	26.3672	73.3715	26.3672	75.4903	26.3672	74.2432	26.3672	76.2535	26.3672	75.1156	26.3672	76.9055	26.3672	75.9338	26.3672	77.4148	26.3672	76.6516	26.3672	77.7567	26.3672	77.2319	26.3672	77.9139	26.3672	77.6468	26.3672	77.8772
27.832	74.3357	27.832	74.359	27.832	74.3239	27.832	74.4023	27.832	74.3234	27.832	74.4816	27.832	74.3418	27.832	74.6188	27.832	74.3948	27.832	74.8383	27.832	74.5041	27.832	75.1613	27.832	74.6952	27.832	75.5999	27.832	74.9917	27.832	76.1516	27.832	75.409	27.832	76.7981	27.832	75.948	27.832	77.5089	27.832	76.593	27.832	78.2463	27.832	77.3135	27.832	78.9703	27.832	78.0702	27.832	79.6423	27.832	78.8201	27.832	80.2271	27.832	79.5215	27.832	80.6935	27.832	80.136	27.832	81.0162	27.832	80.6308	27.832	81.1765	27.832	80.9796	27.832	81.1646
29.2969	77.6367	29.2969	77.64	29.2969	77.6514	29.2969	77.6682	29.2969	77.6832	29.2969	77.7329	29.2969	77.7365	29.2969	77.8503	29.2969	77.8211	29.2969	78.0382	29.2969	77.9503	29.2969	78.3128	29.2969	78.1403	29.2969	78.6837	29.2969	78.4065	29.2969	79.151	29.2969	78.7599	29.2969	79.7026	29.2969	79.2039	29.2969	80.3159	29.2969	79.7311	29.2969	80.9607	29.2969	80.3231	29.2969	81.6024	29.2969	80.9522	29.2969	82.2056	29.2969	81.585	29.2969	82.7366	29.2969	82.1853	29.2969	83.1646	29.2969	82.7176	29.2969	83.4643	29.2969	83.1497	29.2969	83.6174	29.2969	83.455	29.2969	83.6142
30.7617	80.4473	30.7617	80.4697	30.7617	80.4473	30.7617	80.5196	30.7617	80.4685	30.7617	80.6058	30.7617	80.5136	30.7617	80.7401	30.7617	80.5895	30.7617	80.9347	30.7617	80.7058	30.7617	81.2009	30.7617	80.8743	30.7617	81.545	30.7617	81.1068	30.7617	81.9665	30.7617	81.4129	30.7617	82.4562	30.7617	81.7967	30.7617	82.9966	30.7617	82.2544	30.7617	83.5632	30.7617	82.7736	30.7617	84.1273	30.7617	83.333	30.7617	84.6576	30.7617	83.9048	30.7617	85.1231	30.7617	84.4566	30.7617	85.4948	30.7617	84.9552	30.7617	85.7484	30.7617	85.3689	30.7617	85.8664	30.7617	85.6705	30.7617	85.8401
32.2266	82.8388	32.2266	82.8685	32.2266	82.8338	32.2266	82.9265	32.2266	82.8529	32.2266	83.019	32.2266	82.8982	32.2266	83.1539	32.2266	82.9748	32.2266	83.3398	32.2266	83.0901	32.2266	83.5845	32.2266	83.2528	32.2266	83.8928	32.2266	83.472	32.2266	84.2649	32.2266	83.7547	32.2266	84.6948	32.2266	84.1044	32.2266	85.1701	32.2266	84.5183	32.2266	85.6719	32.2266	84.9864	32.2266	86.1762	32.2266	85.4912	32.2266	86.6558	32.2266	86.0086	32.2266	87.0818	32.2266	86.5097	32.2266	87.4266	32.2266	86.9635	32.2266	87.6657	32.2266	87.3401	32.2266	87.7813	32.2266	87.6132	32.2266	87.7638
33.6914	84.1969	33.6914	84.2237	33.6914	84.1957	33.6914	84.2787	33.6914	84.2195	33.6914	84.3662	33.6914	84.27	33.6914	84.4921	33.6914	84.3506	33.6914	84.6625	33.6914	84.4665	33.6914	84.8835	33.6914	84.624	33.6914	85.1588	33.6914	84.8293	33.6914	85.4891	33.6914	85.0877	33.6914	85.8703	33.6914	85.4016	33.6914	86.2926	33.6914	85.7692	33.6914	86.7409	33.6914	86.1831	33.6914	87.1946	33.6914	86.6294	33.6914	87.6294	33.6914	87.0881	33.6914	88.0187	33.6914	87.5344	33.6914	88.3363	33.6914	87.9405	33.6914	88.5589	33.6914	88.2784	33.6914	88.6689	33.6914	88.5235	33.6914	88.657
35.1562	84.4533	35.1562	84.4823	35.1562	84.4514	35.1562	84.5404	35.1562	84.4762	35.1562	84.6304	35.1562	84.5287	35.1562	84.7562	35.1562	84.611	35.1562	84.9222	35.1562	84.7266	35.1562	85.132	35.1562	84.8795	35.1562	85.3883	35.1562	85.074	35.1562	85.6909	35.1562	85.3135	35.1562	86.0364	35.1562	85.5997	35.1562	86.4169	35.1562	85.9311	35.1562	86.8199	35.1562	86.302	35.1562	87.2279	35.1562	86.7014	35.1562	87.6196	35.1562	87.1129	35.1562	87.9711	35.1562	87.5153	35.1562	88.2582	35.1562	87.8837	35.1562	88.4591	35.1562	88.1926	35.1562	88.557	35.1562	88.4185	35.1562	88.5433
36.6211	84.2284	36.6211	84.2584	36.6211	84.2259	36.6211	84.3173	36.6211	84.2506	36.6211	84.4069	36.6211	84.3028	36.6211	84.5296	36.6211	84.384	36.6211	84.6882	36.6211	84.4961	36.6211	84.885	36.6211	84.6417	36.6211	85.1215	36.6211	84.8235	36.6211	85.3976	36.6211	85.0441	36.6211	85.7103	36.6211	85.3045	36.6211	86.0535	36.6211	85.6038	36.6211	86.4167	36.6211	85.9375	36.6211	86.7851	36.6211	86.297	36.6211	87.1398	36.6211	86.6684	36.6211	87.4591	36.6211	87.0332	36.6211	87.7204	36.6211	87.3691	36.6211	87.9031	36.6211	87.6524	36.6211	87.9914	36.6211	87.8608	36.6211	87.9771
38.0859	83.946	38.0859	83.9783	38.0859	83.9405	38.0859	84.0383	38.0859	83.9615	38.0859	84.127	38.0859	84.0091	38.0859	84.2459	38.0859	84.0841	38.0859	84.3966	38.0859	84.1877	38.0859	84.5804	38.0859	84.3214	38.0859	84.7981	38.0859	84.487	38.0859	85.0491	38.0859	84.6862	38.0859	85.3311	38.0859	84.92	38.0859	85.6386	38.0859	85.1875	38.0859	85.9631	38.0859	85.4854	38.0859	86.2917	38.0859	85.8069	38.0859	86.6078	38.0859	86.1405	38.0859	86.8921	38.0859	86.4701	38.0859	87.1241	38.0859	86.7759	38.0859	87.2848	38.0859	87.0362	38.0859	87.3597	38.0859	87.2301	38.0859	87.3411
39.5508	83.6794	39.5508	83.7154	39.5508	83.6701	39.5508	83.7786	39.5508	83.6874	39.5508	83.8693	39.5508	83.7314	39.5508	83.9882	39.5508	83.8021	39.5508	84.1358	39.5508	83.9003	39.5508	84.3125	39.5508	84.0266	39.5508	84.5184	39.5508	84.1819	39.5508	84.7523	39.5508	84.3672	39.5508	85.0118	39.5508	84.5828	39.5508	85.2923	39.5508	84.8279	39.5508	85.5861	39.5508	85.0997	39.5508	85.8822	39.5508	85.3924	39.5508	86.1661	39.5508	85.6964	39.5508	86.4205	39.5508	85.9977	39.5508	86.6269	39.5508	86.2786	39.5508	86.7681	39.5508	86.5196	39.5508	86.8308	39.5508	86.7012	39.5508	86.8081
41.0156	83.5718	41.0156	83.6111	41.0156	83.5585	41.0156	83.6763	41.0156	83.5711	41.0156	83.7669	41.0156	83.6097	41.0156	83.8828	41.0156	83.6739	41.0156	84.0233	41.0156	83.7636	41.0156	84.188	41.0156	83.8787	41.0156	84.3759	41.0156	84.0193	41.0156	84.5859	41.0156	84.1855	41.0156	84.8156	41.0156	84.3774	41.0156	85.0612	41.0156	84.5942	41.0156	85.3167	41.0156	84.8337	41.0156	85.5734	41.0156	85.0916	41.0156	85.8193	41.0156	85.3602	41.0156	86.0397	41.0156	85.6281	41.0156	86.2183	41.0156	85.8799	41.0156	86.3394	41.0156	86.098	41.0156	86.3905	41.0156	86.2647	41.0156	86.3651
42.4805	83.3488	42.4805	83.3888	42.4805	83.335	42.4805	83.4548	42.4805	83.3475	42.4805	83.546	42.4805	83.386	42.4805	83.6616	42.4805	83.4499	42.4805	83.8004	42.4805	83.5386	42.4805	83.9612	42.4805	83.6515	42.4805	84.1427	42.4805	83.7881	42.4805	84.3431	42.4805	83.9479	42.4805	84.56	42.4805	84.1305	42.4805	84.79	42.4805	84.3348	42.4805	85.0278	42.4805	84.5591	42.4805	85.2657	42.4805	84.7994	42.4805	85.493	42.4805	85.0493	42.4805	85.6962	42.4805	85.2986	42.4805	85.8605	42.4805	85.5336	42.4805	85.9711	42.4805	85.738	42.4805	86.0165	42.4805	85.895	42.4805	85.9907
43.9453	83.2867	43.9453	83.3323	43.9453	83.2672	43.9453	83.4031	43.9453	83.2737	43.9453	83.4979	43.9453	83.3061	43.9453	83.6153	43.9453	83.3636	43.9453	83.7533	43.9453	83.4453	43.9453	83.9101	43.9453	83.5502	43.9453	84.0835	43.9453	83.6773	43.9453	84.2716	43.9453	83.8258	43.9453	84.4716	43.9453	83.9948	43.9453	84.6806	43.9453	84.1832	43.9453	84.8939	43.9453	84.3893	43.9453	85.1049	43.9453	84.6098	43.9453	85.3047	43.9453	84.8391	43.9453	85.4818	43.9453	85.0684	43.9453	85.6231	43.9453	85.2856	43.9453	85.7156	43.9453	85.4761	43.9453	85.7492	43.9453	85.6246	43.9453	85.7183
45.4102	83.3357	45.4102	83.3825	45.4102	83.3137	45.4102	83.4533	45.4102	83.3168	45.4102	83.5467	45.4102	83.3447	45.4102	83.6606	45.4102	83.3968	45.4102	83.793	45.4102	83.4719	45.4102	83.9415	45.4102	83.5687	45.4102	84.1037	45.4102	83.6862	45.4102	84.2773	45.4102	83.823	45.4102	84.4599	45.4102	83.9781	45.4102	84.6484	45.4102	84.1505	45.4102	84.839	45.4102	84.3382	45.4102	85.0261	45.4102	84.5387	45.4102	85.2023	45.4102	84.747	45.4102	85.3576	45.4102	84.9555	45.4102	85.4806	45.4102	85.1536	45.4102	85.5597	45.4102	85.3282	45.4102	85.5856	45.4102	85.4655	45.4102	85.5538
46.875	83.4563	46.875	83.4987	46.875	83.438	46.875	83.5644	46.875	83.4441	46.875	83.6517	46.875	83.4741	46.875	83.7585	46.875	83.5272	46.875	83.8825	46.875	83.602	46.875	84.0209	46.875	83.6966	46.875	84.1711	46.875	83.8095	46.875	84.3306	46.875	83.9389	46.875	84.4968	46.875	84.0834	46.875	84.667	46.875	84.2413	46.875	84.8378	46.875	84.411	46.875	85.0046	46.875	84.5899	46.875	85.1612	46.875	84.7739	46.875	85.2991	46.875	84.9569	46.875	85.4086	46.875	85.1299	46.875	85.4795	46.875	85.282	46.875	85.5038	46.875	85.4012	46.875	85.4773
48.3398	83.604	48.3398	83.6449	48.3398	83.5863	48.3398	83.7079	48.3398	83.5922	48.3398	83.7914	48.3398	83.6211	48.3398	83.8931	48.3398	83.6722	48.3398	84.0102	48.3398	83.7436	48.3398	84.14	48.3398	83.8336	48.3398	84.2796	48.3398	83.9399	48.3398	84.4264	48.3398	84.0607	48.3398	84.5776	48.3398	84.1938	48.3398	84.7309	48.3398	84.3376	48.3398	84.883	48.3398	84.4902	48.3398	85.0302	48.3398	84.6496	48.3398	85.1673	48.3398	84.8123	48.3398	85.2871	48.3398	84.9734	48.3398	85.3813	48.3398	85.1257	48.3398	85.4414	48.3398	85.26	48.3398	85.4603	48.3398	85.366	48.3398	85.4348
51.2695	83.9239	51.2695	83.9687	51.2695	83.9018	51.2695	84.0347	51.2695	83.9026	51.2695	84.1197	51.2695	83.9261	51.2695	84.2211	51.2695	83.971	51.2695	84.3357	51.2695	84.0355	51.2695	84.4598	51.2695	84.1172	51.2695	84.5901	51.2695	84.2136	51.2695	84.7233	51.2695	84.322	51.2695	84.8564	51.2695	84.44	51.2695	84.9867	51.2695	84.5653	51.2695	85.1116	51.2695	84.6961	51.2695	85.2281	51.2695	84.8304	51.2695	85.3327	51.2695	84.9661	51.2695	85.4207	51.2695	85.0999	51.2695	85.4863	51.2695	85.227	51.2695	85.5237	51.2695	85.3406	51.2695	85.528	51.2695	85.4332	51.2695	85.4973
52.7344	84.089	52.7344	84.1404	52.7344	84.0596	52.7344	84.2121	52.7344	84.0528	52.7344	84.3018	52.7344	84.0684	52.7344	84.4065	52.7344	84.1051	52.7344	84.5225	52.7344	84.1612	52.7344	84.6461	52.7344	84.2345	52.7344	84.7735	52.7344	84.3221	52.7344	84.9011	52.7344	84.4214	52.7344	85.0258	52.7344	84.5298	52.7344	85.1447	52.7344	84.6451	52.7344	85.2553	52.7344	84.7655	52.7344	85.3551	52.7344	84.8893	52.7344	85.4414	52.7344	85.015	52.7344	85.5104	52.7344	85.1398	52.7344	85.5578	52.7344	85.26	52.7344	85.5791	52.7344	85.3698	52.7344	85.5705	52.7344	85.4624	52.7344	85.5309
54.1992	84.3474	54.1992	84.3993	54.1992	84.3156	54.1992	84.4698	54.1992	84.3045	54.1992	84.5565	54.1992	84.3141	54.1992	84.6563	54.1992	84.3432	54.1992	84.7658	54.1992	84.3903	54.1992	84.8813	54.1992	84.4531	54.1992	84.9989	54.1992	84.529	54.1992	85.115	54.1992	84.6156	54.1992	85.2264	54.1992	84.7105	54.1992	85.3305	54.1992	84.8116	54.1992	85.4249	54.1992	84.9173	54.1992	85.5075	54.1992	85.0266	54.1992	85.5764	54.1992	85.138	54.1992	85.6288	54.1992	85.2496	54.1992	85.6615	54.1992	85.3582	54.1992	85.6711	54.1992	85.4588	54.1992	85.655	54.1992	85.5456	54.1992	85.6125
55.6641	84.7576	55.6641	84.8052	55.6641	84.728	55.6641	84.8694	55.6641	84.7171	55.6641	84.9479	55.6641	84.7247	55.6641	85.0378	55.6641	84.7499	55.6641	85.1356	55.6641	84.7911	55.6641	85.2375	55.6641	84.846	55.6641	85.3398	55.6641	84.9123	55.6641	85.4388	55.6641	84.9874	55.6641	85.5313	55.6641	85.0687	55.6641	85.6146	55.6641	85.1541	55.6641	85.6869	55.6641	85.2418	55.6641	85.7468	55.6641	85.3306	55.6641	85.7935	55.6641	85.4194	55.6641	85.826	55.6641	85.5067	55.6641	85.8432	55.6641	85.5907	55.6641	85.8434	55.6641	85.6683	55.6641	85.8254	55.6641	85.7356	55.6641	85.789
58.5938	85.4458	58.5938	85.475	58.5938	85.4323	58.5938	85.5189	58.5938	85.4349	58.5938	85.5753	58.5938	85.4531	58.5938	85.6417	58.5938	85.4855	58.5938	85.7148	58.5938	85.5303	58.5938	85.791	58.5938	85.5847	58.5938	85.8663	58.5938	85.6457	58.5938	85.9372	58.5938	85.71	58.5938	86.0004	58.5938	85.7745	58.5938	86.0537	58.5938	85.8364	58.5938	86.0959	58.5938	85.8936	58.5938	86.1269	58.5938	85.945	58.5938	86.1476	58.5938	85.9902	58.5938	86.1595	58.5938	86.0297	58.5938	86.1639	58.5938	86.0641	58.5938	86.1618	58.5938	86.0939	58.5938	86.1535	58.5938	86.1191	58.5938	86.1391
60.0586	85.6502	60.0586	85.6731	60.0586	85.6429	60.0586	85.7108	60.0586	85.6515	60.0586	85.7612	60.0586	85.675	60.0586	85.8218	60.0586	85.7121	60.0586	85.8892	60.0586	85.7604	60.0586	85.9597	60.0586	85.8169	60.0586	86.0292	60.0586	85.8785	60.0586	86.094	60.0586	85.9415	60.0586	86.1508	60.0586	86.0027	60.0586	86.1976	60.0586	86.0591	60.0586	86.2332	60.0586	86.1086	60.0586	86.2581	60.0586	86.1502	60.0586	86.2736	60.0586	86.184	60.0586	86.2819	60.0586	86.2108	60.0586	86.2848	60.0586	86.232	60.0586	86.2838	60.0586	86.2488	60.0586	86.2796	60.0586	86.2622	60.0586	86.2724
62.9883	86.0591	62.9883	86.0713	62.9883	86.0632	62.9883	86.099	62.9883	86.0835	62.9883	86.1408	62.9883	86.1188	62.9883	86.1941	62.9883	86.1673	62.9883	86.2557	62.9883	86.2262	62.9883	86.3219	62.9883	86.2923	62.9883	86.3885	62.9883	86.3616	62.9883	86.4515	62.9883	86.43	62.9883	86.5073	62.9883	86.4935	62.9883	86.5531	62.9883	86.5483	62.9883	86.5875	62.9883	86.5921	62.9883	86.6105	62.9883	86.6233	62.9883	86.6236	62.9883	86.6423	62.9883	86.6294	62.9883	86.6506	62.9883	86.6311	62.9883	86.651	62.9883	86.6315	62.9883	86.6468	62.9883	86.6328	62.9883	86.641	62.9883	86.6359
64.4531	86.3421	64.4531	86.3515	64.4531	86.3477	64.4531	86.3749	64.4531	86.3679	64.4531	86.4111	64.4531	86.4018	64.4531	86.4578	64.4531	86.4477	64.4531	86.5118	64.4531	86.503	64.4531	86.5697	64.4531	86.5644	64.4531	86.6276	64.4531	86.6282	64.4531	86.6813	64.4531	86.6902	64.4531	86.7275	64.4531	86.7463	64.4531	86.7633	64.4531	86.7929	64.4531	86.7875	64.4531	86.8272	64.4531	86.8004	64.4531	86.8481	64.4531	86.8038	64.4531	86.8558	64.4531	86.801	64.4531	86.8522	64.4531	86.7959	64.4531	86.8408	64.4531	86.7923	64.4531	86.8256	64.4531	86.793	64.4531	86.8107	64.4531	86.7992
67.3828	86.9318	67.3828	86.9361	67.3828	86.9393	67.3828	86.9515	67.3828	86.9585	67.3828	86.9768	67.3828	86.9885	67.3828	87.01	67.3828	87.0278	67.3828	87.0483	67.3828	87.074	67.3828	87.0884	67.3828	87.1242	67.3828	87.1267	67.3828	87.1745	67.3828	87.1595	67.3828	87.2211	67.3828	87.1834	67.3828	87.2597	67.3828	87.196	67.3828	87.2866	67.3828	87.1963	67.3828	87.2991	67.3828	87.1852	67.3828	87.296	67.3828	87.1655	67.3828	87.2779	67.3828	87.1418	67.3828	87.2476	67.3828	87.1197	67.3828	87.2099	67.3828	87.105	67.3828	87.1708	67.3828	87.1019	67.3828	87.1367	67.3828	87.1126
68.8477	87.1963	68.8477	87.1947	68.8477	87.2086	68.8477	87.2033	68.8477	87.2315	68.8477	87.221	68.8477	87.2641	68.8477	87.2458	68.8477	87.3046	68.8477	87.275	68.8477	87.3508	68.8477	87.3056	68.8477	87.3994	68.8477	87.3338	68.8477	87.4467	68.8477	87.356	68.8477	87.4885	68.8477	87.3691	68.8477	87.5204	68.8477	87.3707	68.8477	87.5387	68.8477	87.36	68.8477	87.5404	68.8477	87.3382	68.8477	87.5243	68.8477	87.3086	68.8477	87.4912	68.8477	87.2768	68.8477	87.4445	68.8477	87.2493	68.8477	87.3897	68.8477	87.2327	68.8477	87.3341	68.8477	87.232	68.8477	87.2853	68.8477	87.2499
71.7773	87.6556	71.7773	87.6455	71.7773	87.6739	71.7773	87.6428	71.7773	87.7001	71.7773	87.6465	71.7773	87.7336	71.7773	87.6549	71.7773	87.7729	71.7773	87.6657	71.7773	87.8155	71.7773	87.676	71.7773	87.8585	71.7773	87.6825	71.7773	87.8977	71.7773	87.6821	71.7773	87.9287	71.7773	87.6718	71.7773	87.947	71.7773	87.6497	71.7773	87.9483	71.7773	87.6157	71.7773	87.9295	71.7773	87.5717	71.7773	87.8893	71.7773	87.5222	71.7773	87.8288	71.7773	87.474	71.7773	87.7522	71.7773	87.4355	71.7773	87.6665	71.7773	87.4149	71.7773	87.5808	71.7773	87.4186	71.7773	87.5054	71.7773	87.4493
74.707	88.0857	74.707	88.0828	74.707	88.0956	74.707	88.086	74.707	88.113	74.707	88.0939	74.707	88.1374	74.707	88.1044	74.707	88.1676	74.707	88.115	74.707	88.2018	74.707	88.1225	74.707	88.2368	74.707	88.1236	74.707	88.2686	74.707	88.1148	74.707	88.2926	74.707	88.0932	74.707	88.3037	74.707	88.057	74.707	88.2973	74.707	88.0063	74.707	88.2698	74.707	87.9434	74.707	88.2197	74.707	87.8737	74.707	88.1482	74.707	87.8053	74.707	88.06	74.707	87.7479	74.707	87.963	74.707	87.7117	74.707	87.868	74.707	87.7045	74.707	87.7868	74.707	87.73
77.6367	88.4148	77.6367	88.4218	77.6367	88.4136	77.6367	88.4334	77.6367	88.4189	77.6367	88.4479	77.6367	88.431	77.6367	88.4631	77.6367	88.4492	77.6367	88.4763	77.6367	88.4719	77.6367	88.4845	77.6367	88.4965	77.6367	88.4843	77.6367	88.5193	77.6367	88.4722	77.6367	88.5358	77.6367	88.4454	77.6367	88.5409	77.6367	88.402	77.6367	88.5299	77.6367	88.342	77.6367	88.4991	77.6367	88.2681	77.6367	88.4469	77.6367	88.1858	77.6367	88.3744	77.6367	88.1035	77.6367	88.2863	77.6367	88.0317	77.6367	88.191	77.6367	87.9813	77.6367	88.0996	77.6367	87.9611	77.6367	88.0243	77.6367	87.9759
79.1016	88.5474	79.1016	88.5585	79.1016	88.5409	79.1016	88.5731	79.1016	88.5401	79.1016	88.5895	79.1016	88.5453	79.1016	88.6055	79.1016	88.5562	79.1016	88.6186	79.1016	88.5716	79.1016	88.6259	79.1016	88.5892	79.1016	88.6239	79.1016	88.6055	79.1016	88.6093	79.1016	88.6161	79.1016	88.5792	79.1016	88.6164	79.1016	88.5317	79.1016	88.6015	79.1016	88.4667	79.1016	88.5679	79.1016	88.3868	79.1016	88.5137	79.1016	88.2976	79.1016	88.4401	79.1016	88.2076	79.1016	88.3518	79.1016	88.1279	79.1016	88.2571	79.1016	88.0696	79.1016	88.1674	79.1016	88.0423	79.1016	88.0951	79.1016	88.0511
82.0312	88.7965	82.0312	88.8125	82.0312	88.7825	82.0312	88.8291	82.0312	88.7714	82.0312	88.845	82.0312	88.7641	82.0312	88.8584	82.0312	88.7607	82.0312	88.8672	82.0312	88.7609	82.0312	88.8686	82.0312	88.7632	82.0312	88.8596	82.0312	88.765	82.0312	88.837	82.0312	88.7627	82.0312	88.7977	82.0312	88.7519	82.0312	88.7401	82.0312	88.7282	82.0312	88.664	82.0312	88.6879	82.0312	88.5722	82.0312	88.6291	82.0312	88.4705	82.0312	88.5525	82.0312	88.3679	82.0312	88.4628	82.0312	88.2759	82.0312	88.3682	82.0312	88.2067	82.0312	88.2799	82.0312	88.1702	82.0312	88.2107	82.0312	88.1718
84.9609	89.0005	84.9609	89.0212	84.9609	88.9801	84.9609	89.0409	84.9609	88.9613	84.9609	89.0583	84.9609	88.9448	84.9609	89.0714	84.9609	88.9314	84.9609	89.0781	84.9609	88.9207	84.9609	89.0758	84.9609	88.9116	84.9609	89.0612	84.9609	88.9017	84.9609	89.0312	84.9609	88.8877	84.9609	88.9827	84.9609	88.8655	84.9609	88.9141	84.9609	88.8307	84.9609	88.8253	84.9609	88.7798	84.9609	88.7192	84.9609	88.7112	84.9609	88.602	84.9609	88.6262	84.9609	88.4835	84.9609	88.5295	84.9609	88.3759	84.9609	88.4299	84.9609	88.2924	84.9609	88.3395	84.9609	88.2441	84.9609	88.2714	84.9609	88.2373
87.8906	89.0487	87.8906	89.068	87.8906	89.0289	87.8906	89.0858	87.8906	89.0097	87.8906	89.1008	87.8906	88.9923	87.8906	89.1116	87.8906	88.9771	87.8906	89.1162	87.8906	88.9644	87.8906	89.112	87.8906	88.9532	87.8906	89.0961	87.8906	88.9416	87.8906	89.0652	87.8906	88.9264	87.8906	89.0162	87.8906	88.9035	87.8906	88.9471	87.8906	88.8686	87.8906	88.8579	87.8906	88.8181	87.8906	88.7514	87.8906	88.75	87.8906	88.6339	87.8906	88.6653	87.8906	88.5151	87.8906	88.5686	87.8906	88.4076	87.8906	88.4686	87.8906	88.3246	87.8906	88.3772	87.8906	88.2774	87.8906	88.3076	87.8906	88.2719
90.8203	89.136	90.8203	89.1568	90.8203	89.1115	90.8203	89.173	90.8203	89.0845	90.8203	89.1835	90.8203	89.0562	90.8203	89.1872	90.8203	89.0275	90.8203	89.1823	90.8203	88.9992	90.8203	89.1668	90.8203	88.971	90.8203	89.1379	90.8203	88.9416	90.8203	89.0928	90.8203	88.9088	90.8203	89.0287	90.8203	88.8691	90.8203	88.944	90.8203	88.8189	90.8203	88.839	90.8203	88.7549	90.8203	88.717	90.8203	88.6755	90.8203	88.5846	90.8203	88.5817	90.8203	88.4522	90.8203	88.4782	90.8203	88.3328	90.8203	88.3735	90.8203	88.2403	90.8203	88.2796	90.8203	88.1859	90.8203	88.2097	90.8203	88.176
95.2148	89.2003	95.2148	89.2246	95.2148	89.1689	95.2148	89.2409	95.2148	89.1318	95.2148	89.2483	95.2148	89.0903	95.2148	89.2458	95.2148	89.0459	95.2148	89.232	95.2148	89	95.2148	89.2051	95.2148	88.953	95.2148	89.1627	95.2148	88.9046	95.2148	89.1022	95.2148	88.8533	95.2148	89.0211	95.2148	88.7964	95.2148	88.9183	95.2148	88.7308	95.2148	88.7946	95.2148	88.6535	95.2148	88.6538	95.2148	88.5631	95.2148	88.5034	95.2148	88.4606	95.2148	88.3548	95.2148	88.3504	95.2148	88.2216	95.2148	88.2411	95.2148	88.1183	95.2148	88.1445	95.2148	88.0564	95.2148	88.0741	95.2148	88.042
98.1445	89.201	98.1445	89.2347	98.1445	89.1571	98.1445	89.2577	98.1445	89.1041	98.1445	89.2695	98.1445	89.0436	98.1445	89.2698	98.1445	88.9774	98.1445	89.2576	98.1445	88.9075	98.1445	89.2312	98.1445	88.8354	98.1445	89.1884	98.1445	88.762	98.1445	89.1262	98.1445	88.6871	98.1445	89.0418	98.1445	88.6092	98.1445	88.9334	98.1445	88.5264	98.1445	88.8013	98.1445	88.4369	98.1445	88.6486	98.1445	88.3397	98.1445	88.4826	98.1445	88.2364	98.1445	88.3144	98.1445	88.1317	98.1445	88.1583	98.1445	88.0339	98.1445	88.0293	98.1445	87.9544	98.1445	87.9403	98.1445	87.9057	98.1445	87.8989
101.074	89.3249	101.074	89.3501	101.074	89.2849	101.074	89.3607	101.074	89.2303	101.074	89.3571	101.074	89.162	101.074	89.3399	101.074	89.0813	101.074	89.3091	101.074	88.99	101.074	89.2641	101.074	88.8898	101.074	89.2034	101.074	88.7821	101.074	89.1248	101.074	88.6682	101.074	89.026	101.074	88.5488	101.074	88.9051	101.074	88.4246	101.074	88.762	101.074	88.2968	101.074	88.5992	101.074	88.1679	101.074	88.4229	101.074	88.0423	101.074	88.2428	101.074	87.9266	101.074	88.0721	101.074	87.8296	101.074	87.9248	101.074	87.7615	101.074	87.814	101.074	87.7321	101.074	87.7487
105.469	89.6785	105.469	89.6752	105.469	89.6611	105.469	89.6516	105.469	89.6239	105.469	89.608	105.469	89.5677	105.469	89.545	105.469	89.4946	105.469	89.4634	105.469	89.4064	105.469	89.3635	105.469	89.3053	105.469	89.2454	105.469	89.1929	105.469	89.1092	105.469	89.0705	105.469	88.9553	105.469	88.9383	105.469	88.7854	105.469	88.7964	105.469	88.6029	105.469	88.6451	105.469	88.4138	105.469	88.4857	105.469	88.2272	105.469	88.3219	105.469	88.0545	105.469	88.1599	105.469	87.9087	105.469	88.0091	105.469	87.8023	105.469	87.8811	105.469	87.7446	105.469	87.788	105.469	87.7403
108.398	89.798	108.398	89.8007	108.398	89.7764	108.398	89.7844	108.398	89.7361	108.398	89.7493	108.398	89.6777	108.398	89.6955	108.398	89.6023	108.398	89.6228	108.398	89.5111	108.398	89.5305	108.398	89.4055	108.398	89.4178	108.398	89.2867	108.398	89.2838	108.398	89.1557	108.398	89.1279	108.398	89.013	108.398	88.9513	108.398	88.8594	108.398	88.7573	108.398	88.6958	108.398	88.5524	108.398	88.5247	108.398	88.3468	108.398	88.3508	108.398	88.1536	108.398	88.1814	108.398	87.9872	108.398	88.0266	108.398	87.8618	108.398	87.8987	108.398	87.7878	108.398	87.8099	108.398	87.7708
112.793	89.746	112.793	89.7398	112.793	89.7327	112.793	89.7141	112.793	89.7	112.793	89.6692	112.793	89.6485	112.793	89.6055	112.793	89.579	112.793	89.523	112.793	89.4927	112.793	89.4213	112.793	89.3902	112.793	89.2996	112.793	89.272	112.793	89.1571	112.793	89.1382	112.793	88.9937	112.793	88.9887	112.793	88.8106	112.793	88.8241	112.793	88.6114	112.793	88.6457	112.793	88.4029	112.793	88.4573	112.793	88.1952	112.793	88.265	112.793	88.0014	112.793	88.0782	112.793	87.8358	112.793	87.9085	112.793	87.7122	112.793	87.769	112.793	87.6409	112.793	87.6721	112.793	87.6275
117.188	89.7644	117.188	89.7609	117.188	89.7441	117.188	89.734	117.188	89.7004	117.188	89.6842	117.188	89.6342	117.188	89.6125	117.188	89.5471	117.188	89.5191	117.188	89.441	117.188	89.4042	117.188	89.3177	117.188	89.2672	117.188	89.1789	117.188	89.1077	117.188	89.0258	117.188	88.9258	117.188	88.8593	117.188	88.7229	117.188	88.6804	117.188	88.5033	117.188	88.4908	117.188	88.2748	117.188	88.294	117.188	88.0489	117.188	88.0959	117.188	87.8399	117.188	87.905	117.188	87.6631	117.188	87.7324	117.188	87.5327	117.188	87.5904	117.188	87.4585	117.188	87.4913	117.188	87.4451
120.117	89.9672	120.117	89.9595	120.117	89.9489	120.117	89.9268	120.117	89.9046	120.117	89.8702	120.117	89.8346	120.117	89.7912	120.117	89.7402	120.117	89.691	120.117	89.6231	120.117	89.5705	120.117	89.4853	120.117	89.43	120.117	89.3289	120.117	89.2696	120.117	89.1565	120.117	89.0897	120.117	88.9703	120.117	88.8917	120.117	88.7735	120.117	88.679	120.117	88.57	120.117	88.458	120.117	88.3654	120.117	88.2383	120.117	88.1668	120.117	88.0326	120.117	87.9832	120.117	87.8545	120.117	87.825	120.117	87.7172	120.117	87.7023	120.117	87.6304	120.117	87.6248	120.117	87.5995
124.512	90.0713	124.512	90.0331	124.512	90.086	124.512	89.9719	124.512	90.0772	124.512	89.8888	124.512	90.0451	124.512	89.7854	124.512	89.9905	124.512	89.6632	124.512	89.9141	124.512	89.5239	124.512	89.8165	124.512	89.3694	124.512	89.6978	124.512	89.2017	124.512	89.5582	124.512	89.0231	124.512	89.398	124.512	88.8372	124.512	89.2185	124.512	88.6491	124.512	89.0227	124.512	88.4657	124.512	88.8163	124.512	88.295	124.512	88.6079	124.512	88.1461	124.512	88.4083	124.512	88.0277	124.512	88.2298	124.512	87.9472	124.512	88.0837	124.512	87.9103	124.512	87.9788	124.512	87.9204
128.906	89.9366	128.906	89.9067	128.906	89.9399	128.906	89.8486	128.906	89.919	128.906	89.7616	128.906	89.8769	128.906	89.6459	128.906	89.8169	128.906	89.5025	128.906	89.7419	128.906	89.3332	128.906	89.6538	128.906	89.1409	128.906	89.5534	128.906	88.9298	128.906	89.4402	128.906	88.7059	128.906	89.3125	128.906	88.4777	128.906	89.1684	128.906	88.2559	128.906	89.0067	128.906	88.0534	128.906	88.8285	128.906	87.8837	128.906	88.6375	128.906	87.7584	128.906	88.4405	128.906	87.6853	128.906	88.2466	128.906	87.6673	128.906	88.0661	128.906	87.7023	128.906	87.9093	128.906	87.7853
133.301	89.8789	133.301	89.9108	133.301	89.8176	133.301	89.9111	133.301	89.7295	133.301	89.8787	133.301	89.6189	133.301	89.8128	133.301	89.4907	133.301	89.7125	133.301	89.3509	133.301	89.5776	133.301	89.2056	133.301	89.4084	133.301	89.0603	133.301	89.2067	133.301	88.919	133.301	88.9767	133.301	88.7836	133.301	88.7266	133.301	88.654	133.301	88.4688	133.301	88.5285	133.301	88.2203	133.301	88.4046	133.301	88.0004	133.301	88.2805	133.301	87.8272	133.301	88.1557	133.301	87.7132	133.301	88.0321	133.301	87.6619	133.301	87.9135	133.301	87.6682	133.301	87.8066	133.301	87.7208
139.16	89.4718	139.16	89.4919	139.16	89.4196	139.16	89.4814	139.16	89.3351	139.16	89.4423	139.16	89.2188	139.16	89.3765	139.16	89.0732	139.16	89.2859	139.16	88.9018	139.16	89.1713	139.16	88.7096	139.16	89.0333	139.16	88.503	139.16	88.872	139.16	88.2894	139.16	88.6887	139.16	88.0773	139.16	88.4866	139.16	87.8756	139.16	88.272	139.16	87.693	139.16	88.0548	139.16	87.5374	139.16	87.8475	139.16	87.4141	139.16	87.6627	139.16	87.3251	139.16	87.5103	139.16	87.2692	139.16	87.3947	139.16	87.2427	139.16	87.3146	139.16	87.2419	139.16	87.2652
143.555	89.2238	143.555	89.2016	143.555	89.2082	143.555	89.1435	143.555	89.1541	143.555	89.052	143.555	89.0619	143.555	88.9307	143.555	88.9333	143.555	88.7831	143.555	88.7708	143.555	88.6131	143.555	88.5783	143.555	88.4245	143.555	88.3603	143.555	88.2213	143.555	88.123	143.555	88.0078	143.555	87.8736	143.555	87.7899	143.555	87.6218	143.555	87.5748	143.555	87.379	143.555	87.371	143.555	87.1582	143.555	87.1873	143.555	86.9719	143.555	87.0309	143.555	86.8294	143.555	86.9051	143.555	86.7348	143.555	86.8091	143.555	86.6856	143.555	86.7399	143.555	86.675	143.555	86.6948
147.949	89.0563	147.949	89.0298	147.949	89.0432	147.949	88.9641	147.949	88.9911	147.949	88.86	147.949	88.9013	147.949	88.719	147.949	88.7761	147.949	88.5429	147.949	88.6183	147.949	88.3339	147.949	88.4312	147.949	88.0954	147.949	88.2186	147.949	87.8322	147.949	87.9849	147.949	87.5519	147.949	87.7356	147.949	87.2658	147.949	87.478	147.949	86.9888	147.949	87.2215	147.949	86.7376	147.949	86.9772	147.949	86.5278	147.949	86.7568	147.949	86.3695	147.949	86.5702	147.949	86.2647	147.949	86.4231	147.949	86.2079	147.949	86.3157	147.949	86.1898	147.949	86.244	147.949	86.2029
153.809	89.1385	153.809	89.1273	153.809	89.1028	153.809	89.0703	153.809	89.0205	153.809	88.9691	153.809	88.8929	153.809	88.826	153.809	88.7227	153.809	88.6437	153.809	88.5139	153.809	88.4249	153.809	88.2719	153.809	88.1726	153.809	88.0038	153.809	87.8914	153.809	87.7186	153.809	87.5882	153.809	87.4269	153.809	87.2746	153.809	87.1413	153.809	86.9666	153.809	86.8752	153.809	86.6841	153.809	86.6411	153.809	86.4465	153.809	86.4486	153.809	86.2674	153.809	86.3019	153.809	86.15	153.809	86.1987	153.809	86.0868	153.809	86.1312	153.809	86.0638	153.809	86.0898	153.809	86.0674
159.668	89.1728	159.668	89.1382	159.668	89.1559	159.668	89.0522	159.668	89.0881	159.668	88.9158	159.668	88.9704	159.668	88.7307	159.668	88.8044	159.668	88.4997	159.668	88.5921	159.668	88.2266	159.668	88.3365	159.668	87.9166	159.668	88.0421	159.668	87.5779	159.668	87.7162	159.668	87.2224	159.668	87.37	159.668	86.8672	159.668	87.0195	159.668	86.5343	159.668	86.6849	159.668	86.2476	159.668	86.3881	159.668	86.0266	159.668	86.1481	159.668	85.8795	159.668	85.9747	159.668	85.7992	159.668	85.8656	159.668	85.7674	159.668	85.8072	159.668	85.7622	159.668	85.7803	159.668	85.768
165.527	89.405	165.527	89.426	165.527	89.3369	165.527	89.3986	165.527	89.2225	165.527	89.3214	165.527	89.0627	165.527	89.1923	165.527	88.8586	165.527	89.008	165.527	88.6114	165.527	88.7651	165.527	88.3224	165.527	88.4604	165.527	87.9943	165.527	88.0926	165.527	87.6317	165.527	87.6651	165.527	87.2428	165.527	87.1898	165.527	86.8411	165.527	86.6901	165.527	86.4458	165.527	86.2022	165.527	86.0804	165.527	85.771	165.527	85.768	165.527	85.4371	165.527	85.524	165.527	85.2209	165.527	85.3503	165.527	85.1143	165.527	85.2348	165.527	85.0881	165.527	85.1591	165.527	85.1098
171.387	89.4918	171.387	89.44	171.387	89.5023	171.387	89.3483	171.387	89.4699	171.387	89.2181	171.387	89.3927	171.387	89.0509	171.387	89.2683	171.387	88.8481	171.387	89.0938	171.387	88.6118	171.387	88.8667	171.387	88.3449	171.387	88.5857	171.387	88.0518	171.387	88.2523	171.387	87.7395	171.387	87.8739	171.387	87.4179	171.387	87.4653	171.387	87.1008	171.387	87.0507	171.387	86.8037	171.387	86.662	171.387	86.5419	171.387	86.3327	171.387	86.3261	171.387	86.088	171.387	86.1596	171.387	85.9361	171.387	86.0374	171.387	85.8668	171.387	85.9502	171.387	85.8585	171.387	85.8904
177.246	89.2417	177.246	89.2111	177.246	89.2343	177.246	89.1404	177.246	89.1906	177.246	89.0269	177.246	89.1118	177.246	88.8673	177.246	88.9984	177.246	88.6578	177.246	88.85	177.246	88.3946	177.246	88.6651	177.246	88.0759	177.246	88.4414	177.246	87.7049	177.246	88.1777	177.246	87.2928	177.246	87.8757	177.246	86.8627	177.246	87.543	177.246	86.4499	177.246	87.1951	177.246	86.0972	177.246	86.8551	177.246	85.8418	177.246	86.5501	177.246	85.7007	177.246	86.3024	177.246	85.6624	177.246	86.1209	177.246	85.6944	177.246	85.9968	177.246	85.76	177.246	85.9086	177.246	85.8336
183.105	89.1506	183.105	89.1306	183.105	89.1245	183.105	89.0653	183.105	89.0519	183.105	88.9557	183.105	88.9332	183.105	88.8019	183.105	88.7695	183.105	88.6035	183.105	88.5628	183.105	88.3592	183.105	88.316	183.105	88.069	183.105	88.0332	183.105	87.7356	183.105	87.7211	183.105	87.3683	183.105	87.3902	183.105	86.9856	183.105	87.0564	183.105	86.6164	183.105	86.741	183.105	86.2958	183.105	86.4674	183.105	86.0557	183.105	86.255	183.105	85.912	183.105	86.1115	183.105	85.857	183.105	86.0295	183.105	85.8638	183.105	85.9885	183.105	85.8989	183.105	85.9638	183.105	85.9359
188.965	89.9585	188.965	89.9292	188.965	89.9303	188.965	89.8388	188.965	89.8477	188.965	89.6835	188.965	89.7134	188.965	89.4592	188.965	89.5298	188.965	89.162	188.965	89.2985	188.965	88.789	188.965	89.0209	188.965	88.3413	188.965	88.6987	188.965	87.8277	188.965	88.3361	188.965	87.2705	188.965	87.9422	188.965	86.711	188.965	87.534	188.965	86.21	188.965	87.1387	188.965	85.8351	188.965	86.7903	188.965	85.6338	188.965	86.5208	188.965	85.6066	188.965	86.3459	188.965	85.7059	188.965	86.2556	188.965	85.8617	188.965	86.2161	188.965	86.0127	188.965	86.1841	188.965	86.1226
196.289	90.6667	196.289	90.718	196.289	90.5673	196.289	90.723	196.289	90.4164	196.289	90.6804	196.289	90.2096	196.289	90.5855	196.289	89.942	196.289	90.4292	196.289	89.6098	196.289	90.1992	196.289	89.2107	196.289	89.8819	196.289	88.7467	196.289	89.4658	196.289	88.2272	196.289	88.9472	196.289	87.6731	196.289	88.338	196.289	87.1219	196.289	87.6743	196.289	86.6263	196.289	87.0229	196.289	86.2443	196.289	86.4736	196.289	86.0152	196.289	86.1057	196.289	85.9374	196.289	85.9433	196.289	85.9653	196.289	85.9391	196.289	86.0319	196.289	86.0068	196.289	86.077	196.289	86.0674
203.613	90.3238	203.613	90.2859	203.613	90.3257	203.613	90.2134	203.613	90.2889	203.613	90.1071	203.613	90.2095	203.613	89.9666	203.613	90.0814	203.613	89.7902	203.613	89.8963	203.613	89.5742	203.613	89.6437	203.613	89.314	203.613	89.3124	203.613	89.0058	203.613	88.8935	203.613	88.6496	203.613	88.3855	203.613	88.2535	203.613	87.8021	203.613	87.8368	203.613	87.181	203.613	87.4298	203.613	86.5889	203.613	87.067	203.613	86.1109	203.613	86.7747	203.613	85.8181	203.613	86.5574	203.613	85.7277	203.613	86.395	203.613	85.7937	203.613	86.2532	203.613	85.9402	203.613	86.1034
210.938	90.4856	210.938	90.4125	210.938	90.5213	210.938	90.3021	210.938	90.5173	210.938	90.1521	210.938	90.4693	210.938	89.9572	210.938	90.3708	210.938	89.7097	210.938	90.2126	210.938	89.4	210.938	89.9841	210.938	89.0206	210.938	89.6739	210.938	88.5703	210.938	89.2741	210.938	88.0625	210.938	88.7853	210.938	87.533	210.938	88.2244	210.938	87.0434	210.938	87.6334	210.938	86.6691	210.938	87.0825	210.938	86.4665	210.938	86.6576	210.938	86.4363	210.938	86.4229	210.938	86.5195	210.938	86.3807	210.938	86.6314	210.938	86.4687	210.938	86.7	210.938	86.5966	210.938	86.6877
218.262	90.6816	218.262	90.6254	218.262	90.6995	218.262	90.5258	218.262	90.6842	218.262	90.3771	218.262	90.6394	218.262	90.1725	218.262	90.5662	218.262	89.903	218.262	90.4608	218.262	89.5574	218.262	90.3133	218.262	89.1233	218.262	90.1073	218.262	88.5912	218.262	89.8231	218.262	87.9616	218.262	89.4423	218.262	87.2578	218.262	88.9556	218.262	86.5402	218.262	88.3734	218.262	85.914	218.262	87.7359	218.262	85.5011	218.262	87.1184	218.262	85.3689	218.262	86.6149	218.262	85.473	218.262	86.2921	218.262	85.6891	218.262	86.1426	218.262	85.8953	218.262	86.087	218.262	86.0265
225.586	91.0161	225.586	91.0804	225.586	90.9019	225.586	91.091	225.586	90.7432	225.586	91.0442	225.586	90.547	225.586	90.9342	225.586	90.322	225.586	90.7522	225.586	90.0768	225.586	90.485	225.586	89.8183	225.586	90.1171	225.586	89.5499	225.586	89.6344	225.586	89.2718	225.586	89.0322	225.586	88.9828	225.586	88.3278	225.586	88.6845	225.586	87.5756	225.586	88.3849	225.586	86.8781	225.586	88.1001	225.586	86.3685	225.586	87.8489	225.586	86.1453	225.586	87.644	225.586	86.2018	225.586	87.4817	225.586	86.4345	225.586	87.3394	225.586	86.7211	225.586	87.1826	225.586	86.9801
232.91	91.042	232.91	91.1269	232.91	90.9021	232.91	91.1616	232.91	90.7015	232.91	91.1485	232.91	90.4341	232.91	91.0858	232.91	90.0948	232.91	90.9667	232.91	89.6795	232.91	90.778	232.91	89.1862	232.91	90.5012	232.91	88.6171	232.91	90.1146	232.91	87.9826	232.91	89.5989	232.91	87.309	232.91	88.946	232.91	86.6468	232.91	88.174	232.91	86.0745	232.91	87.3462	232.91	85.6818	232.91	86.582	232.91	85.525	232.91	86.0301	232.91	85.5835	232.91	85.7815	232.91	85.7645	232.91	85.7945	232.91	85.9531	232.91	85.9294	232.91	86.0602	232.91	86.046
241.699	91.0594	241.699	90.9592	241.699	91.1247	241.699	90.8322	241.699	91.1454	241.699	90.6844	241.699	91.1111	241.699	90.5174	241.699	91.0091	241.699	90.3263	241.699	90.8231	241.699	90.1	241.699	90.5333	241.699	89.8237	241.699	90.1168	241.699	89.4847	241.699	89.5521	241.699	89.08	241.699	88.8266	241.699	88.6234	241.699	87.9523	241.699	88.1487	241.699	86.9903	241.699	87.705	241.699	86.0785	241.699	87.3394	241.699	85.4198	241.699	87.0748	241.699	85.1718	241.699	86.8955	241.699	85.3104	241.699	86.7546	241.699	85.6603	241.699	86.5938	241.699	86.0446	241.699	86.3643
250.488	90.6521	250.488	90.5418	250.488	90.7178	250.488	90.3826	250.488	90.7442	250.488	90.1711	250.488	90.7355	250.488	89.9038	250.488	90.6928	250.488	89.5756	250.488	90.611	250.488	89.1786	250.488	90.4772	250.488	88.7039	250.488	90.2708	250.488	88.1471	250.488	89.9676	250.488	87.5191	250.488	89.5454	250.488	86.8618	250.488	88.9944	250.488	86.2622	250.488	88.3301	250.488	85.8411	250.488	87.6094	250.488	85.6917	250.488	86.9387	250.488	85.8027	250.488	86.4502	250.488	86.0571	250.488	86.2283	250.488	86.3112	250.488	86.2431	250.488	86.4626	250.488	86.3701	250.488	86.4732
259.277	91.4767	259.277	91.5043	259.277	91.4145	259.277	91.4917	259.277	91.3197	259.277	91.429	259.277	91.1901	259.277	91.3016	259.277	91.0183	259.277	91.0886	259.277	90.7915	259.277	90.762	259.277	90.4915	259.277	90.2876	259.277	90.0967	259.277	89.6295	259.277	89.5863	259.277	88.759	259.277	88.9485	259.277	87.6749	259.277	88.194	259.277	86.4431	259.277	87.3768	259.277	85.2612	259.277	86.6114	259.277	84.4716	259.277	86.0537	259.277	84.3365	259.277	85.8115	259.277	84.7354	259.277	85.8486	259.277	85.312	259.277	86.0084	259.277	85.7948	259.277	86.121	259.277	86.0684
268.066	90.604	268.066	90.6425	268.066	90.5495	268.066	90.6706	268.066	90.4738	268.066	90.6899	268.066	90.3738	268.066	90.6932	268.066	90.2474	268.066	90.661	268.066	90.0898	268.066	90.5614	268.066	89.8898	268.066	90.3544	268.066	89.6277	268.066	89.9984	268.066	89.2777	268.066	89.461	268.066	88.8145	268.066	88.7324	268.066	88.2255	268.066	87.8462	268.066	87.5282	268.066	86.9055	268.066	86.7899	268.066	86.0893	268.066	86.1348	268.066	85.5842	268.066	85.7012	268.066	85.4433	268.066	85.5476	268.066	85.5399	268.066	85.5993	268.066	85.6868	268.066	85.7095	268.066	85.7554
276.855	89.9957	276.855	89.9685	276.855	90.0005	276.855	89.9215	276.855	89.9852	276.855	89.8613	276.855	89.9546	276.855	89.793	276.855	89.9099	276.855	89.7128	276.855	89.8422	276.855	89.6022	276.855	89.7287	276.855	89.4277	276.855	89.5344	276.855	89.1468	276.855	89.2199	276.855	88.7189	276.855	88.7538	276.855	88.1205	276.855	88.1293	276.855	87.3681	276.855	87.3826	276.855	86.5488	276.855	86.6123	276.855	85.8385	276.855	85.9748	276.855	85.4375	276.855	85.6175	276.855	85.4085	276.855	85.5693	276.855	85.6098	276.855	85.7127	276.855	85.8316	276.855	85.8771	276.855	85.9337
287.109	90.3808	287.109	90.377	287.109	90.3394	287.109	90.3359	287.109	90.2485	287.109	90.2649	287.109	90.1084	287.109	90.1663	287.109	89.9231	287.109	90.0327	287.109	89.6965	287.109	89.8447	287.109	89.427	287.109	89.5727	287.109	89.101	287.109	89.1824	287.109	88.6902	287.109	88.6447	287.109	88.1581	287.109	87.9499	287.109	87.479	287.109	87.1277	287.109	86.6707	287.109	86.273	287.109	85.8359	287.109	85.5538	287.109	85.1748	287.109	85.1483	287.109	84.8848	287.109	85.1068	287.109	84.9775	287.109	85.2974	287.109	85.2612	287.109	85.5163	287.109	85.5158	287.109	85.6104
297.363	90.4716	297.363	90.3415	297.363	90.5181	297.363	90.1384	297.363	90.4779	297.363	89.8811	297.363	90.3532	297.363	89.5933	297.363	90.1468	297.363	89.2954	297.363	89.8566	297.363	88.9928	297.363	89.4714	297.363	88.6658	297.363	88.969	297.363	88.2712	297.363	88.3214	297.363	87.7579	297.363	87.508	297.363	87.097	297.363	86.5386	297.363	86.3239	297.363	85.4933	297.363	85.5791	297.363	84.5666	297.363	85.0873	297.363	84.0373	297.363	84.9981	297.363	84.0619	297.363	85.2261	297.363	84.497	297.363	85.5399	297.363	85.0504	297.363	85.7449	297.363	85.5005	297.363	85.7413
307.617	90.6788	307.617	90.6275	307.617	90.7	307.617	90.5426	307.617	90.694	307.617	90.4184	307.617	90.6615	307.617	90.2437	307.617	90.5972	307.617	89.9978	307.617	90.4865	307.617	89.6508	307.617	90.3025	307.617	89.1677	307.617	90.007	307.617	88.5189	307.617	89.5545	307.617	87.6954	307.617	88.9007	307.617	86.7279	307.617	88.0157	307.617	85.7091	307.617	86.9071	307.617	84.804	307.617	85.6599	307.617	84.2032	307.617	84.4844	307.617	83.9986	307.617	83.6923	307.617	84.0968	307.617	83.4767	307.617	84.294	307.617	83.7038	307.617	84.4072	307.617	84.0673	307.617	84.3347
319.336	89.7593	319.336	89.7722	319.336	89.7225	319.336	89.7576	319.336	89.6788	319.336	89.7189	319.336	89.6564	319.336	89.6567	319.336	89.6823	319.336	89.5569	319.336	89.7629	319.336	89.3826	319.336	89.8684	319.336	89.0743	319.336	89.9332	319.336	88.5584	319.336	89.8723	319.336	87.7611	319.336	89.6021	319.336	86.6339	319.336	89.0564	319.336	85.212	319.336	88.2022	319.336	83.7461	319.336	87.0732	319.336	82.8153	319.336	85.8325	319.336	82.8818	319.336	84.8224	319.336	83.6121	319.336	84.3936	319.336	84.3873	319.336	84.5231	319.336	84.8835	319.336	84.8435	319.336	85.0202
329.59	89.8691	329.59	89.9837	329.59	89.7096	329.59	90.0644	329.59	89.5033	329.59	90.1241	329.59	89.2599	329.59	90.1682	329.59	88.9988	329.59	90.1836	329.59	88.7412	329.59	90.1329	329.59	88.4964	329.59	89.957	329.59	88.2501	329.59	89.5848	329.59	87.9642	329.59	88.9444	329.59	87.5947	329.59	87.9766	329.59	87.1169	329.59	86.6603	329.59	86.5514	329.59	85.0846	329.59	85.9772	329.59	83.605	329.59	85.5184	329.59	82.8757	329.59	85.2818	329.59	83.1805	329.59	85.272	329.59	83.9956	329.59	85.3709	329.59	84.754	329.59	85.4063	329.59	85.2294
341.309	89.9638	341.309	89.9075	341.309	89.9554	341.309	89.8128	341.309	89.8762	341.309	89.7218	341.309	89.7388	341.309	89.6788	341.309	89.5671	341.309	89.7051	341.309	89.3824	341.309	89.778	341.309	89.186	341.309	89.826	341.309	88.9442	341.309	89.7479	341.309	88.588	341.309	89.4383	341.309	88.0296	341.309	88.8104	341.309	87.1917	341.309	87.8235	341.309	86.0639	341.309	86.5412	341.309	84.818	341.309	85.2441	341.309	83.9399	341.309	84.4609	341.309	83.9377	341.309	84.5192	341.309	84.6291	341.309	85.0981	341.309	85.4087	341.309	85.6848	341.309	85.9004	341.309	85.9887
353.027	90.6722	353.027	90.5492	353.027	90.7223	353.027	90.3693	353.027	90.6974	353.027	90.1645	353.027	90.6049	353.027	89.9766	353.027	90.4563	353.027	89.8378	353.027	90.2587	353.027	89.7442	353.027	90.0032	353.027	89.6422	353.027	89.6535	353.027	89.4428	353.027	89.1444	353.027	89.0504	353.027	88.3916	353.027	88.3903	353.027	87.3145	353.027	87.4356	353.027	85.881	353.027	86.2595	353.027	84.2214	353.027	85.1259	353.027	82.8505	353.027	84.4837	353.027	82.5523	353.027	84.566	353.027	83.3266	353.027	85.0553	353.027	84.3836	353.027	85.4769	353.027	85.1846	353.027	85.5532
366.211	90.6596	366.211	90.5189	366.211	90.7125	366.211	90.277	366.211	90.7071	366.211	89.9399	366.211	90.6831	366.211	89.5345	366.211	90.6778	366.211	89.1043	366.211	90.709	366.211	88.6922	366.211	90.7605	366.211	88.31	366.211	90.7776	366.211	87.9135	366.211	90.676	366.211	87.4112	366.211	90.3552	366.211	86.7086	366.211	89.7107	366.211	85.772	366.211	88.6455	366.211	84.7168	366.211	87.0948	366.211	83.8864	366.211	85.1149	366.211	83.6768	366.211	83.1571	366.211	84.0513	366.211	82.2739	366.211	84.5576	366.211	82.8416	366.211	84.7986	366.211	83.8615	366.211	84.5796
379.395	90.5117	379.395	90.5565	379.395	90.3603	379.395	90.5133	379.395	90.098	379.395	90.4096	379.395	89.7471	379.395	90.2764	379.395	89.3708	379.395	90.1384	379.395	89.0693	379.395	89.996	379.395	88.9293	379.395	89.8097	379.395	88.9432	379.395	89.5009	379.395	88.987	379.395	88.9715	379.395	88.8876	379.395	88.1301	379.395	88.4997	379.395	86.9227	379.395	87.7453	379.395	85.3889	379.395	86.6493	379.395	83.7916	379.395	85.4086	379.395	82.7309	379.395	84.4299	379.395	82.6817	379.395	84.063	379.395	83.2961	379.395	84.1793	379.395	83.9465	379.395	84.3628	379.395	84.3204
392.578	90.1064	392.578	90.0322	392.578	90.0573	392.578	89.8637	392.578	89.8916	392.578	89.6657	392.578	89.6476	392.578	89.5264	392.578	89.386	392.578	89.5181	392.578	89.1713	392.578	89.6403	392.578	89.0407	392.578	89.7963	392.578	88.9729	392.578	89.8299	392.578	88.8799	392.578	89.5811	392.578	88.6335	392.578	88.9211	392.578	88.1114	392.578	87.7744	392.578	87.2462	392.578	86.1805	392.578	86.0917	392.578	84.4865	392.578	84.9295	392.578	83.5314	392.578	84.2712	392.578	83.8312	392.578	84.3976	392.578	84.7098	392.578	84.9723	392.578	85.4163	392.578	85.4974	392.578	85.6836
405.762	90.1947	405.762	90.0795	405.762	90.1543	405.762	89.8178	405.762	89.9747	405.762	89.4644	405.762	89.6885	405.762	89.1323	405.762	89.3466	405.762	88.9578	405.762	89.0192	405.762	89.0004	405.762	88.7783	405.762	89.1705	405.762	88.6464	405.762	89.285	405.762	88.5544	405.762	89.168	405.762	88.362	405.762	88.6951	405.762	87.9233	405.762	87.7963	405.762	87.144	405.762	86.4809	405.762	86.0334	405.762	84.9604	405.762	84.8049	405.762	83.8459	405.762	83.9679	405.762	83.7839	405.762	83.9764	405.762	84.4734	405.762	84.5839	405.762	85.1497	405.762	85.1869	405.762	85.4141
420.41	90.904	420.41	90.8211	420.41	90.8446	420.41	90.5925	420.41	90.6712	420.41	90.243	420.41	90.4299	420.41	89.8251	420.41	90.1711	420.41	89.4057	420.41	89.9274	420.41	89.0326	420.41	89.6928	420.41	88.6895	420.41	89.4184	420.41	88.2821	420.41	89.0232	420.41	87.6787	420.41	88.4025	420.41	86.7713	420.41	87.4316	420.41	85.5341	420.41	85.9757	420.41	84.1157	420.41	83.9348	420.41	82.9633	420.41	81.4442	420.41	82.6165	420.41	79.4996	420.41	82.9951	420.41	79.6365	420.41	83.4925	420.41	81.0928	420.41	83.664	420.41	82.4631	420.41	83.3354
435.059	90.854	435.059	90.7981	435.059	90.7363	435.059	90.5757	435.059	90.464	435.059	90.2156	435.059	90.0954	435.059	89.7727	435.059	89.7395	435.059	89.322	435.059	89.53	435.059	88.9204	435.059	89.5389	435.059	88.5579	435.059	89.6904	435.059	88.1517	435.059	89.785	435.059	87.5845	435.059	89.6021	435.059	86.7345	435.059	88.9715	435.059	85.4915	435.059	87.8055	435.059	83.8301	435.059	86.1521	435.059	82.0919	435.059	84.337	435.059	81.3496	435.059	83.0914	435.059	82.167	435.059	82.9942	435.059	83.4597	435.059	83.6487	435.059	84.3498	435.059	84.3301	435.059	84.6244
451.172	91.0996	451.172	91.0157	451.172	90.9651	451.172	90.7549	451.172	90.5939	451.172	90.3954	451.172	89.9944	451.172	90.0673	451.172	89.2342	451.172	89.9319	451.172	88.4976	451.172	90.0825	451.172	88.0855	451.172	90.4313	451.172	88.189	451.172	90.7391	451.172	88.62	451.172	90.7439	451.172	88.9694	451.172	90.2361	451.172	88.9071	451.172	89.0612	451.172	88.2525	451.172	87.1316	451.172	86.9655	451.172	84.626	451.172	85.2724	451.172	82.7599	451.172	84.0011	451.172	83.2036	451.172	84.1077	451.172	84.7252	451.172	85.0936	451.172	85.8418	451.172	85.949	451.172	86.2413
465.82	91.9404	465.82	91.7116	465.82	91.9379	465.82	91.2302	465.82	91.7094	465.82	90.4834	465.82	91.2439	465.82	89.5218	465.82	90.5366	465.82	88.547	465.82	89.6361	465.82	87.9465	465.82	88.7044	465.82	88.0141	465.82	88.0034	465.82	88.544	465.82	87.6725	465.82	89.038	465.82	87.5097	465.82	89.1063	465.82	87.1319	465.82	88.5171	465.82	86.2252	465.82	87.124	465.82	84.6375	465.82	84.9144	465.82	82.607	465.82	82.5639	465.82	81.4719	465.82	82.1558	465.82	82.4875	465.82	83.6887	465.82	84.2082	465.82	85.0942	465.82	85.3676	465.82	85.6761
483.398	91.5433	483.398	91.525	483.398	91.4535	483.398	91.3732	483.398	91.2483	483.398	91.0314	483.398	90.9038	483.398	90.4309	483.398	90.4182	483.398	89.5313	483.398	89.8642	483.398	88.3874	483.398	89.4156	483.398	87.2218	483.398	89.2519	483.398	86.3631	483.398	89.3546	483.398	85.9048	483.398	89.4645	483.398	85.5246	483.398	89.2562	483.398	84.8108	483.398	88.4605	483.398	83.5929	483.398	86.8538	483.398	82.2009	483.398	84.2011	483.398	81.5984	483.398	80.3891	483.398	82.1456	483.398	77.3978	483.398	82.9165	483.398	79.0685	483.398	83.2068	483.398	81.4521	483.398	82.781
499.512	90.9426	499.512	90.8588	499.512	90.8513	499.512	90.6256	499.512	90.5649	499.512	90.2831	499.512	90.0557	499.512	89.8887	499.512	89.2884	499.512	89.5214	499.512	88.264	499.512	89.2717	499.512	87.1357	499.512	89.1793	499.512	86.3329	499.512	89.1549	499.512	86.2861	499.512	88.9884	499.512	86.7831	499.512	88.4331	499.512	87.2042	499.512	87.2605	499.512	87.1254	499.512	85.2553	499.512	86.3748	499.512	82.264	499.512	84.9549	499.512	78.9613	499.512	83.1842	499.512	78.6247	499.512	82.0046	499.512	80.7799	499.512	82.1466	499.512	82.408	499.512	82.8104	499.512	83.0335
517.09	91.6194	517.09	91.4356	517.09	91.5769	517.09	91.0168	517.09	91.3225	517.09	90.347	517.09	90.8854	517.09	89.4158	517.09	90.3096	517.09	88.2991	517.09	89.6569	517.09	87.3242	517.09	89.0327	517.09	87.0547	517.09	88.5961	517.09	87.6043	517.09	88.4482	517.09	88.3521	517.09	88.4458	517.09	88.6936	517.09	88.2386	517.09	88.342	517.09	87.4825	517.09	87.2194	517.09	85.9611	517.09	85.4391	517.09	83.7045	517.09	83.4996	517.09	81.3993	517.09	82.3636	517.09	80.5018	517.09	82.353	517.09	81.1148	517.09	82.6409	517.09	82.0142	517.09	82.5753
536.133	92.3738	536.133	92.322	536.133	92.2129	536.133	92.0427	536.133	91.8515	536.133	91.5323	536.133	91.2925	536.133	90.8042	536.133	90.536	536.133	89.8964	536.133	89.5958	536.133	88.9101	536.133	88.5251	536.133	88.0677	536.133	87.4801	536.133	87.6135	536.133	86.7751	536.133	87.4691	536.133	86.6362	536.133	87.1965	536.133	86.7672	536.133	86.356	536.133	86.5441	536.133	84.6575	536.133	85.4643	536.133	82.0332	536.133	83.3212	536.133	79.6598	536.133	80.9173	536.133	80.4012	536.133	81.0314	536.133	82.5962	536.133	82.9842	536.133	84.1179	536.133	84.3498	536.133	84.7072
555.176	91.0362	555.176	90.9611	555.176	90.9403	555.176	90.7162	555.176	90.6601	555.176	90.2827	555.176	90.1767	555.176	89.6321	555.176	89.48	555.176	88.7801	555.176	88.6315	555.176	87.8705	555.176	87.8757	555.176	87.183	555.176	87.6127	555.176	86.9082	555.176	87.9696	555.176	86.9145	555.176	88.5452	555.176	86.8786	555.176	88.8377	555.176	86.4928	555.176	88.5458	555.176	85.4988	555.176	87.5425	555.176	83.7093	555.176	85.8341	555.176	81.3119	555.176	83.6438	555.176	79.8588	555.176	81.7315	555.176	80.7326	555.176	81.2659	555.176	82.0159	555.176	81.9518	555.176	82.4317
574.219	92.1369	574.219	91.9851	574.219	92.1985	574.219	91.719	574.219	92.1459	574.219	91.277	574.219	91.9036	574.219	90.5725	574.219	91.3543	574.219	89.5276	574.219	90.3554	574.219	88.1858	574.219	88.7681	574.219	86.9599	574.219	86.586	574.219	86.6109	574.219	84.4785	574.219	87.1478	574.219	84.1004	574.219	87.6469	574.219	85.1364	574.219	87.4116	574.219	85.7789	574.219	86.1304	574.219	85.2943	574.219	83.6649	574.219	83.5262	574.219	80.5796	574.219	81.212	574.219	80.3371	574.219	81.5447	574.219	83.0148	574.219	83.9673	574.219	85.0976	574.219	85.5898	574.219	85.9548
594.727	91.3364	594.727	91.2462	594.727	91.3538	594.727	91.0937	594.727	91.2329	594.727	90.818	594.727	90.8843	594.727	90.3018	594.727	90.2367	594.727	89.4142	594.727	89.2953	594.727	88.0889	594.727	88.2165	594.727	86.5162	594.727	87.3428	594.727	85.4565	594.727	87.004	594.727	85.6195	594.727	87.1166	594.727	86.3082	594.727	87.1934	594.727	86.5011	594.727	86.7186	594.727	85.7515	594.727	85.3399	594.727	84.017	594.727	82.9393	594.727	81.9408	594.727	80.0593	594.727	81.2901	594.727	78.8676	594.727	82.1737	594.727	80.1793	594.727	82.9014	594.727	81.8349	594.727	82.8092
615.234	90.9459	615.234	90.8727	615.234	90.766	615.234	90.5241	615.234	90.3974	615.234	89.953	615.234	89.9202	615.234	89.258	615.234	89.4003	615.234	88.4776	615.234	88.8106	615.234	87.5581	615.234	87.9914	615.234	86.525	615.234	86.7966	615.234	85.6713	615.234	85.4613	615.234	85.3392	615.234	84.8543	615.234	85.4036	615.234	85.3347	615.234	85.3813	615.234	85.9675	615.234	84.8453	615.234	85.9786	615.234	83.5106	615.234	85.1382	615.234	81.2663	615.234	83.4462	615.234	78.4966	615.234	81.0651	615.234	76.6538	615.234	78.6058	615.234	76.536	615.234	77.1787	615.234	76.8142
637.207	92.0751	637.207	91.8805	637.207	92.0549	637.207	91.5441	637.207	91.7905	637.207	91.1169	637.207	91.2926	637.207	90.545	637.207	90.5578	637.207	89.6601	637.207	89.5334	637.207	88.2845	637.207	88.1893	637.207	86.5261	637.207	86.7621	637.207	85.4209	637.207	85.9307	637.207	86.0051	637.207	86.0084	637.207	86.9283	637.207	86.2677	637.207	86.8467	637.207	85.9556	637.207	85.4275	637.207	84.6537	637.207	82.8542	637.207	82.1022	637.207	80.8015	637.207	79.6216	637.207	82.1313	637.207	81.5082	637.207	84.5177	637.207	84.5208	637.207	86.0796	637.207	86.2134	637.207	86.6627
659.18	90.3621	659.18	90.272	659.18	90.4101	659.18	90.1112	659.18	90.4468	659.18	89.8345	659.18	90.4475	659.18	89.3527	659.18	90.2731	659.18	88.5556	659.18	89.7299	659.18	87.3814	659.18	88.6881	659.18	85.9557	659.18	87.1806	659.18	84.7343	659.18	85.5505	659.18	84.1504	659.18	84.5693	659.18	84.0359	659.18	84.6853	659.18	83.9366	659.18	85.0999	659.18	83.3759	659.18	84.7938	659.18	81.8929	659.18	83.2794	659.18	79.7113	659.18	80.5902	659.18	79.0194	659.18	77.9869	659.18	80.2724	659.18	78.1513	659.18	81.174	659.18	79.884	659.18	81.041
682.617	90.9716	682.617	91.0327	682.617	90.7948	682.617	90.9911	682.617	90.5347	682.617	90.8546	682.617	90.2137	682.617	90.5482	682.617	89.7845	682.617	89.918	682.617	89.1494	682.617	88.7929	682.617	88.2215	682.617	87.1026	682.617	86.9698	682.617	85.2314	682.617	85.4966	682.617	84.3773	682.617	84.3658	682.617	84.8908	682.617	84.4263	682.617	85.4714	682.617	85.0541	682.617	85.2617	682.617	84.9274	682.617	83.9326	682.617	83.4476	682.617	81.26	682.617	80.4597	682.617	78.3647	682.617	78.0223	682.617	80.2501	682.617	80.9947	682.617	83.4959	682.617	83.9959	682.617	84.8279
707.52	90.5994	707.52	90.5562	707.52	90.4952	707.52	90.4114	707.52	90.3001	707.52	90.2026	707.52	90.0799	707.52	89.8265	707.52	89.746	707.52	89.0639	707.52	89.0854	707.52	87.6762	707.52	87.944	707.52	85.5584	707.52	86.2923	707.52	83.2388	707.52	84.2057	707.52	82.2369	707.52	82.3139	707.52	82.8409	707.52	82.282	707.52	83.6801	707.52	83.4498	707.52	83.647	707.52	83.6452	707.52	81.9462	707.52	82.1782	707.52	78.4913	707.52	79.2464	707.52	76.8769	707.52	77.057	707.52	78.4365	707.52	78.4231	707.52	79.6052	707.52	79.9713	707.52	80.2238
732.422	89.9933	732.422	89.9108	732.422	89.9295	732.422	89.7145	732.422	89.678	732.422	89.4012	732.422	89.2986	732.422	88.9918	732.422	88.8893	732.422	88.476	732.422	88.4595	732.422	87.7494	732.422	87.938	732.422	86.7238	732.422	87.1005	732.422	85.4324	732.422	85.5907	732.422	84.0925	732.422	83.6677	732.422	83.4007	732.422	83.0203	732.422	83.6831	732.422	83.4427	732.422	83.6252	732.422	83.0481	732.422	82.0591	732.422	81.7571	732.422	79.0916	732.422	80.5079	732.422	77.8141	732.422	79.5896	732.422	79.4426	732.422	79.1836	732.422	80.5544	732.422	79.7608	732.422	80.5257
757.324	89.3684	757.324	89.2924	757.324	89.406	757.324	89.2701	757.324	89.4007	757.324	89.2429	757.324	89.3047	757.324	88.926	757.324	88.9624	757.324	88.1389	757.324	88.3149	757.324	86.9882	757.324	87.3709	757.324	85.508	757.324	85.9919	757.324	83.499	757.324	84.0054	757.324	81.8281	757.324	81.9912	757.324	82.3536	757.324	81.9649	757.324	83.3908	757.324	83.361	757.324	83.0854	757.324	84.0082	757.324	81.022	757.324	83.3536	757.324	78.1146	757.324	81.1561	757.324	77.7869	757.324	78.0435	757.324	79.9581	757.324	78.8544	757.324	81.8215	757.324	81.3905	757.324	82.4088
785.156	89.9628	785.156	89.7909	785.156	89.8698	785.156	89.4106	785.156	89.6366	785.156	88.9682	785.156	89.3254	785.156	88.5863	785.156	89.0089	785.156	88.5291	785.156	88.816	785.156	88.6266	785.156	88.5678	785.156	88.0088	785.156	88.0143	785.156	85.9232	785.156	86.9098	785.156	82.682	785.156	84.7972	785.156	81.0413	785.156	82.5523	785.156	81.3303	785.156	82.0056	785.156	81.215	785.156	80.8655	785.156	79.8792	785.156	78.6342	785.156	77.1506	785.156	76.1588	785.156	77.5866	785.156	76.7823	785.156	80.2171	785.156	80.4334	785.156	81.5278	785.156	82.4583	785.156	82.3785
811.523	90.3947	811.523	90.3024	811.523	90.1374	811.523	89.8245	811.523	89.7068	811.523	89.0935	811.523	89.4583	811.523	88.4603	811.523	89.412	811.523	88.0287	811.523	89.0746	811.523	87.3191	811.523	88.0576	811.523	85.8434	811.523	86.4385	811.523	83.6301	811.523	84.6986	811.523	81.403	811.523	83.2784	811.523	80.6889	811.523	82.6755	811.523	81.7327	811.523	83.518	811.523	82.3928	811.523	84.3633	811.523	81.0981	811.523	83.4943	811.523	77.0106	811.523	80.0805	811.523	73.4849	811.523	76.1325	811.523	77.4283	811.523	77.8858	811.523	79.7504	811.523	79.5097	811.523	80.1229
840.82	89.7002	840.82	89.4806	840.82	89.6412	840.82	89.2506	840.82	89.2233	840.82	88.8469	840.82	88.7309	840.82	87.7677	840.82	88.4336	840.82	86.3205	840.82	88.1652	840.82	86.1402	840.82	87.6321	840.82	86.7434	840.82	86.8892	840.82	86.0807	840.82	85.731	840.82	83.3388	840.82	83.1871	840.82	79.7743	840.82	78.9642	840.82	79.2943	840.82	77.1139	840.82	80.6597	840.82	79.6658	840.82	80.9741	840.82	81.1222	840.82	78.9796	840.82	79.6097	840.82	74.8675	840.82	76.2811	840.82	76.8148	840.82	76.2214	840.82	78.7791	840.82	77.9262	840.82	78.7863
870.117	91.1557	870.117	90.8475	870.117	90.6989	870.117	89.8795	870.117	89.7599	870.117	88.5316	870.117	88.864	870.117	87.0901	870.117	88.347	870.117	86.3077	870.117	88.0875	870.117	86.793	870.117	87.8382	870.117	87.1364	870.117	87.4524	870.117	86.0505	870.117	86.6426	870.117	83.9605	870.117	84.8468	870.117	82.0965	870.117	81.7447	870.117	80.4818	870.117	80.0833	870.117	79.5548	870.117	82.2668	870.117	78.974	870.117	82.8342	870.117	76.2772	870.117	79.7674	870.117	71.2256	870.117	73.9062	870.117	77.7641	870.117	76.4409	870.117	80.4539	870.117	79.4522	870.117	80.6211
900.879	90.7976	900.879	90.1257	900.879	90.5506	900.879	89.0301	900.879	89.6758	900.879	88.506	900.879	88.6234	900.879	88.0452	900.879	87.7841	900.879	86.383	900.879	87.3138	900.879	84.5341	900.879	87.0098	900.879	85.0426	900.879	86.4396	900.879	86.1268	900.879	85.3585	900.879	85.3197	900.879	84.1529	900.879	82.0589	900.879	82.446	900.879	78.66	900.879	79.8359	900.879	77.8069	900.879	79.1914	900.879	74.8284	900.879	79.2409	900.879	66.5752	900.879	75.2183	900.879	67.2695	900.879	72.9452	900.879	74.7044	900.879	77.881	900.879	79.0521	900.879	80.7431	900.879	81.157
933.105	89.8093	933.105	89.7031	933.105	89.9437	933.105	89.3955	933.105	89.8122	933.105	88.6012	933.105	89.0028	933.105	87.4141	933.105	87.6601	933.105	86.3291	933.105	86.1336	933.105	85.6233	933.105	84.9363	933.105	84.6984	933.105	84.2212	933.105	83.4583	933.105	83.4462	933.105	82.1325	933.105	82.9216	933.105	80.6471	933.105	82.2131	933.105	80.4491	933.105	80.0801	933.105	81.7115	933.105	80.9592	933.105	82.2417	933.105	82.4283	933.105	80.6164	933.105	80.7847	933.105	75.1857	933.105	74.3821	933.105	53.764	933.105	62.4098	933.105	74.6695	933.105	75.2918	933.105	77.7731
965.332	89.0388	965.332	88.5784	965.332	88.7193	965.332	87.5194	965.332	88.0241	965.332	86.8887	965.332	87.4003	965.332	87.0078	965.332	86.9241	965.332	86.2151	965.332	86.2685	965.332	83.658	965.332	85.0973	965.332	81.7277	965.332	83.556	965.332	82.365	965.332	82.5275	965.332	83.1243	965.332	82.2757	965.332	82.6716	965.332	81.9924	965.332	80.1425	965.332	80.8906	965.332	75.4977	965.332	78.219	965.332	71.6445	965.332	74.7425	965.332	69.7184	965.332	72.8526	965.332	67.7956	965.332	73.7496	965.332	72.0725	965.332	74.7898	965.332	73.7544	965.332	74.4611	965.332	73.248
1,000.49	88.5509	1,000.49	88.3218	1,000.49	88.3251	1,000.49	87.7631	1,000.49	87.9085	1,000.49	87.1992	1,000.49	87.4904	1,000.49	86.4322	1,000.49	86.592	1,000.49	84.919	1,000.49	85.0606	1,000.49	83.1697	1,000.49	84.0287	1,000.49	82.6932	1,000.49	83.5386	1,000.49	82.1822	1,000.49	82.2582	1,000.49	79.8429	1,000.49	80.9528	1,000.49	78.4984	1,000.49	80.8023	1,000.49	79.8447	1,000.49	80.2703	1,000.49	79.8728	1,000.49	78.8667	1,000.49	77.7135	1,000.49	77.2629	1,000.49	76.1579	1,000.49	73.4004	1,000.49	71.9079	1,000.49	62.5882	1,000.49	71.338	1,000.49	71.2618	1,000.49	77.4068	1,000.49	78.2325	1,000.49	80.04
1,035.64	86.1318	1,035.64	86.1098	1,035.64	86.7727	1,035.64	86.5606	1,035.64	86.9771	1,035.64	86.1976	1,035.64	86.3135	1,035.64	84.6668	1,035.64	85.1259	1,035.64	83.2438	1,035.64	83.8347	1,035.64	82.6929	1,035.64	82.2204	1,035.64	81.9783	1,035.64	80.2936	1,035.64	80.7393	1,035.64	80.9607	1,035.64	79.5159	1,035.64	80.9812	1,035.64	78.7681	1,035.64	78.4524	1,035.64	78.9074	1,035.64	77.0703	1,035.64	79.493	1,035.64	78.0999	1,035.64	79.9258	1,035.64	79.1112	1,035.64	77.4979	1,035.64	77.9263	1,035.64	70.8283	1,035.64	71.4572	1,035.64	58.6491	1,035.64	66.0705	1,035.64	73.3989	1,035.64	75.6413	1,035.64	76.6388
1,072.27	87.2161	1,072.27	87.0649	1,072.27	86.9717	1,072.27	86.314	1,072.27	86.3086	1,072.27	84.9207	1,072.27	85.5176	1,072.27	84.1131	1,072.27	84.7784	1,072.27	84.3316	1,072.27	83.3243	1,072.27	83.4165	1,072.27	81.4701	1,072.27	80.796	1,072.27	81.2606	1,072.27	79.4916	1,072.27	80.8762	1,072.27	78.5707	1,072.27	78.8666	1,072.27	75.6622	1,072.27	76.6282	1,072.27	74.409	1,072.27	73.5671	1,072.27	76.3882	1,072.27	74.962	1,072.27	75.0034	1,072.27	79.0141	1,072.27	73.2261	1,072.27	77.8796	1,072.27	72.1958	1,072.27	71.7803	1,072.27	71.1864	1,072.27	66.7572	1,072.27	74.7673	1,072.27	67.6535	1,072.27	72.4983
1,108.89	87.2169	1,108.89	87.171	1,108.89	86.624	1,108.89	86.0946	1,108.89	86.0358	1,108.89	84.7444	1,108.89	85.6278	1,108.89	83.949	1,108.89	85.0457	1,108.89	82.8911	1,108.89	84.0706	1,108.89	81.2209	1,108.89	83.1468	1,108.89	80.2927	1,108.89	81.4848	1,108.89	79.7998	1,108.89	77.8141	1,108.89	76.6307	1,108.89	77.1932	1,108.89	74.2206	1,108.89	78.2532	1,108.89	76.1356	1,108.89	76.9248	1,108.89	76.8078	1,108.89	76.3951	1,108.89	77.3543	1,108.89	76.0137	1,108.89	73.6694	1,108.89	72.3164	1,108.89	66.9262	1,108.89	67.7776	1,108.89	67.1837	1,108.89	72.496	1,108.89	72.3535	1,108.89	76.8167	1,108.89	77.186
1,148.44	86.7617	1,148.44	86.3481	1,148.44	86.115	1,148.44	85.2988	1,148.44	85.6549	1,148.44	84.8648	1,148.44	85.629	1,148.44	84.6297	1,148.44	84.4009	1,148.44	83.4754	1,148.44	82.6363	1,148.44	81.4509	1,148.44	81.8371	1,148.44	80.3552	1,148.44	80.0467	1,148.44	79.1585	1,148.44	78.4845	1,148.44	77.6755	1,148.44	78.92	1,148.44	75.9369	1,148.44	78.752	1,148.44	73.1498	1,148.44	75.2984	1,148.44	74.9602	1,148.44	76.1067	1,148.44	77.3646	1,148.44	80.4085	1,148.44	77.9996	1,148.44	78.8387	1,148.44	75.2511	1,148.44	74.4165	1,148.44	65.6795	1,148.44	60.1083	1,148.44	73.4601	1,148.44	72.2189	1,148.44	75.4782
1,189.45	86.232	1,189.45	85.5453	1,189.45	87.085	1,189.45	86.0694	1,189.45	87.2154	1,189.45	86.8518	1,189.45	86.212	1,189.45	85.6033	1,189.45	85.5653	1,189.45	83.4334	1,189.45	85.0411	1,189.45	82.016	1,189.45	83.0809	1,189.45	79.3275	1,189.45	81.0219	1,189.45	78.4432	1,189.45	79.5333	1,189.45	80.3463	1,189.45	78.4278	1,189.45	78.3419	1,189.45	76.949	1,189.45	74.0872	1,189.45	75.6485	1,189.45	73.3606	1,189.45	74.949	1,189.45	74.8352	1,189.45	71.0194	1,189.45	75.4144	1,189.45	76.1426	1,189.45	71.5227	1,189.45	73.4152	1,189.45	66.4009	1,189.45	71.5675	1,189.45	70.2796	1,189.45	72.0113	1,189.45	72.6231
1,230.47	86.0789	1,230.47	86.315	1,230.47	86.8212	1,230.47	87.2222	1,230.47	87.4008	1,230.47	86.9188	1,230.47	86.5444	1,230.47	85.6036	1,230.47	85.1722	1,230.47	84.9921	1,230.47	85.0022	1,230.47	82.9719	1,230.47	83.4929	1,230.47	80.9357	1,230.47	80.3633	1,230.47	81.303	1,230.47	78.4558	1,230.47	79.9484	1,230.47	76.6414	1,230.47	77.2122	1,230.47	76.7574	1,230.47	74.3133	1,230.47	77.4235	1,230.47	74.2162	1,230.47	76.384	1,230.47	77.9915	1,230.47	75.9688	1,230.47	75.9198	1,230.47	74.749	1,230.47	67.6632	1,230.47	73.1626	1,230.47	63.694	1,230.47	69.1522	1,230.47	70.4112	1,230.47	75.2485	1,230.47	75.751
1,274.41	87.6201	1,274.41	87.7246	1,274.41	87.5481	1,274.41	87.3581	1,274.41	86.5296	1,274.41	85.5502	1,274.41	85.6744	1,274.41	84.9212	1,274.41	84.9102	1,274.41	84.4197	1,274.41	83.0559	1,274.41	82.2232	1,274.41	82.2474	1,274.41	81.4173	1,274.41	81.622	1,274.41	80.1078	1,274.41	79.1848	1,274.41	78.5975	1,274.41	76.8752	1,274.41	76.4299	1,274.41	77.7901	1,274.41	77.077	1,274.41	76.8942	1,274.41	74.1854	1,274.41	69.6645	1,274.41	75.0072	1,274.41	72.0556	1,274.41	75.9757	1,274.41	78.361	1,274.41	74.1712	1,274.41	75.0625	1,274.41	70.5726	1,274.41	66.8602	1,274.41	68.798	1,274.41	59.1875	1,274.41	65.2665
1,319.82	87.5094	1,319.82	87.2388	1,319.82	87.5728	1,319.82	86.5383	1,319.82	87.3763	1,319.82	86.1718	1,319.82	86.872	1,319.82	85.8226	1,319.82	84.9742	1,319.82	83.9556	1,319.82	83.0105	1,319.82	82.658	1,319.82	84.2407	1,319.82	82.4924	1,319.82	82.9559	1,319.82	78.9506	1,319.82	79.954	1,319.82	75.912	1,319.82	78.8528	1,319.82	78.1209	1,319.82	78.2813	1,319.82	77.6615	1,319.82	79.6435	1,319.82	76.4445	1,319.82	76.1437	1,319.82	69.6089	1,319.82	72.7846	1,319.82	75.9714	1,319.82	69.9698	1,319.82	74.644	1,319.82	71.3127	1,319.82	46.6616	1,319.82	67.3681	1,319.82	68.7611	1,319.82	71.2425	1,319.82	72.497
1,366.7	88.5026	1,366.7	88.2538	1,366.7	88.278	1,366.7	87.4588	1,366.7	87.0896	1,366.7	86.2979	1,366.7	85.2457	1,366.7	85.3343	1,366.7	85.5022	1,366.7	83.9577	1,366.7	83.8691	1,366.7	80.4519	1,366.7	81.2276	1,366.7	79.1417	1,366.7	80.3207	1,366.7	79.866	1,366.7	78.3811	1,366.7	75.1201	1,366.7	79.6837	1,366.7	74.3963	1,366.7	77.9957	1,366.7	75.4442	1,366.7	77.8137	1,366.7	77.2482	1,366.7	75.1252	1,366.7	75.9993	1,366.7	72.9326	1,366.7	76.2722	1,366.7	74.1738	1,366.7	72.7692	1,366.7	72.7735	1,366.7	68.7875	1,366.7	70.4578	1,366.7	72.189	1,366.7	63.2819	1,366.7	70.639
1,413.57	88.2677	1,413.57	88.6898	1,413.57	88.7536	1,413.57	87.9696	1,413.57	88.1648	1,413.57	85.4547	1,413.57	87.8241	1,413.57	85.9939	1,413.57	85.9837	1,413.57	84.1862	1,413.57	82.7255	1,413.57	82.1894	1,413.57	82.3819	1,413.57	80.8151	1,413.57	81.6203	1,413.57	74.957	1,413.57	77.9194	1,413.57	77.2196	1,413.57	77.2401	1,413.57	73.8912	1,413.57	78.4908	1,413.57	78.5103	1,413.57	73.5956	1,413.57	78.3774	1,413.57	67.7285	1,413.57	69.9306	1,413.57	72.3867	1,413.57	69.7911	1,413.57	77.9269	1,413.57	73.519	1,413.57	67.9145	1,413.57	71.0724	1,413.57	60.4108	1,413.57	71.3656	1,413.57	68.5971	1,413.57	75.7825
1,463.38	89.7156	1,463.38	90.3706	1,463.38	89.5962	1,463.38	89.1782	1,463.38	89.407	1,463.38	87.491	1,463.38	87.2675	1,463.38	86.7164	1,463.38	85.3182	1,463.38	84.4797	1,463.38	85.9537	1,463.38	83.0489	1,463.38	83.6373	1,463.38	84.0948	1,463.38	80.9236	1,463.38	82.3762	1,463.38	82.2414	1,463.38	74.279	1,463.38	81.892	1,463.38	75.0343	1,463.38	77.4624	1,463.38	76.5738	1,463.38	79.0197	1,463.38	75.1403	1,463.38	77.655	1,463.38	80.3876	1,463.38	74.0983	1,463.38	75.9095	1,463.38	72.7299	1,463.38	76.2439	1,463.38	69.2131	1,463.38	70.512	1,463.38	68.3309	1,463.38	74.4922	1,463.38	75.1165	1,463.38	76.9533
1,516.11	89.6306	1,516.11	89.0281	1,516.11	90.3119	1,516.11	89.0468	1,516.11	88.9968	1,516.11	88.2197	1,516.11	87.7241	1,516.11	86.4004	1,516.11	87.8578	1,516.11	84.3436	1,516.11	87.0096	1,516.11	85.0591	1,516.11	85.3011	1,516.11	82.2725	1,516.11	83.3597	1,516.11	77.787	1,516.11	78.9912	1,516.11	80.5658	1,516.11	81.2843	1,516.11	79.1938	1,516.11	75.4851	1,516.11	75.4496	1,516.11	78.0779	1,516.11	75.794	1,516.11	76.5058	1,516.11	71.7842	1,516.11	76.5194	1,516.11	80.6336	1,516.11	78.0088	1,516.11	74.7478	1,516.11	74.0992	1,516.11	59.66	1,516.11	69.019	1,516.11	68.3111	1,516.11	75.3305	1,516.11	64.6079
1,568.85	88.8293	1,568.85	88.5747	1,568.85	88.7002	1,568.85	88.1977	1,568.85	88.1237	1,568.85	87.5766	1,568.85	86.6618	1,568.85	85.9351	1,568.85	85.4452	1,568.85	84.7693	1,568.85	84.6983	1,568.85	83.3346	1,568.85	83.0267	1,568.85	81.1026	1,568.85	80.1117	1,568.85	79.3277	1,568.85	79.2981	1,568.85	78.6223	1,568.85	77.6819	1,568.85	77.03	1,568.85	74.1246	1,568.85	74.3459	1,568.85	75.1067	1,568.85	74.6488	1,568.85	73.5237	1,568.85	72.2615	1,568.85	71.2985	1,568.85	74.382	1,568.85	75.6148	1,568.85	74.0281	1,568.85	66.3555	1,568.85	60.1052	1,568.85	66.251	1,568.85	63.5928	1,568.85	70.2569	1,568.85	72.3366
1,624.51	87.5714	1,624.51	87.5411	1,624.51	87.7874	1,624.51	87.1497	1,624.51	86.9831	1,624.51	85.6846	1,624.51	85.8792	1,624.51	84.9733	1,624.51	84.6257	1,624.51	82.8104	1,624.51	81.991	1,624.51	81.2413	1,624.51	80.6246	1,624.51	80.9658	1,624.51	80.2169	1,624.51	79.5935	1,624.51	78.1758	1,624.51	78.3123	1,624.51	77.4953	1,624.51	75.1625	1,624.51	75.379	1,624.51	73.9743	1,624.51	75.0159	1,624.51	74.891	1,624.51	72.2906	1,624.51	68.8465	1,624.51	70.7692	1,624.51	71.3266	1,624.51	72.2673	1,624.51	73.6153	1,624.51	71.6406	1,624.51	67.8607	1,624.51	66.3156	1,624.51	76.5118	1,624.51	71.8878	1,624.51	74.7143
1,681.64	87.8644	1,681.64	87.6682	1,681.64	87.0125	1,681.64	86.6344	1,681.64	86.7186	1,681.64	86.1009	1,681.64	85.7166	1,681.64	84.6421	1,681.64	84.441	1,681.64	83.7266	1,681.64	83.13	1,681.64	81.9376	1,681.64	81.2896	1,681.64	79.6442	1,681.64	79.4748	1,681.64	76.8344	1,681.64	77.4582	1,681.64	76.1705	1,681.64	75.7617	1,681.64	77.1255	1,681.64	72.5162	1,681.64	74.6281	1,681.64	76.8118	1,681.64	73.9866	1,681.64	74.84	1,681.64	73.1383	1,681.64	71.3419	1,681.64	70.7348	1,681.64	73.527	1,681.64	72.0006	1,681.64	73.1405	1,681.64	62.3234	1,681.64	72.1466	1,681.64	63.892	1,681.64	72.1126	1,681.64	68.44
1,741.7	89.4393	1,741.7	89.125	1,741.7	89.2872	1,741.7	88.6063	1,741.7	88.2612	1,741.7	87.5556	1,741.7	87.2051	1,741.7	86.1872	1,741.7	85.6916	1,741.7	84.2186	1,741.7	83.6747	1,741.7	82.2581	1,741.7	82.2527	1,741.7	80.8802	1,741.7	81.4251	1,741.7	80.3096	1,741.7	79.1992	1,741.7	78.7279	1,741.7	79.8157	1,741.7	75.842	1,741.7	76.6609	1,741.7	74.4962	1,741.7	73.3366	1,741.7	75.7823	1,741.7	72.1564	1,741.7	73.3428	1,741.7	74.2746	1,741.7	74.255	1,741.7	71.8888	1,741.7	71.5518	1,741.7	73.5764	1,741.7	70.6929	1,741.7	64.7073	1,741.7	72.3656	1,741.7	65.0489	1,741.7	71.677
1,803.22	90.1414	1,803.22	90.1159	1,803.22	90.0358	1,803.22	89.5649	1,803.22	89.3242	1,803.22	88.4148	1,803.22	87.8736	1,803.22	87.2458	1,803.22	86.3335	1,803.22	85.4476	1,803.22	85.9363	1,803.22	83.8881	1,803.22	83.137	1,803.22	82.4651	1,803.22	80.8045	1,803.22	81.1986	1,803.22	80.3242	1,803.22	78.8012	1,803.22	77.9073	1,803.22	78.5956	1,803.22	76.9547	1,803.22	76.0644	1,803.22	76.9932	1,803.22	74.5881	1,803.22	76.0577	1,803.22	71.2539	1,803.22	71.4136	1,803.22	71.1892	1,803.22	76.2398	1,803.22	77.8556	1,803.22	71.8111	1,803.22	66.84	1,803.22	68.866	1,803.22	70.5511	1,803.22	71.0655	1,803.22	73.5935
1,866.21	89.9991	1,866.21	89.875	1,866.21	89.5104	1,866.21	88.9659	1,866.21	88.7173	1,866.21	87.7914	1,866.21	87.666	1,866.21	86.3052	1,866.21	86.5274	1,866.21	85.7081	1,866.21	84.0437	1,866.21	83.815	1,866.21	82.8943	1,866.21	81.7834	1,866.21	81.3519	1,866.21	79.9678	1,866.21	78.5473	1,866.21	79.04	1,866.21	77.5304	1,866.21	77.7816	1,866.21	75.7753	1,866.21	76.818	1,866.21	76.5803	1,866.21	76.4321	1,866.21	74.7026	1,866.21	75.5968	1,866.21	72.3283	1,866.21	73.9288	1,866.21	67.2809	1,866.21	73.1416	1,866.21	75.8701	1,866.21	74.8551	1,866.21	72.306	1,866.21	74.0934	1,866.21	54.1122	1,866.21	69.992
1,932.13	88.7122	1,932.13	88.417	1,932.13	88.7232	1,932.13	87.9913	1,932.13	88.1015	1,932.13	87.1503	1,932.13	86.9104	1,932.13	85.9802	1,932.13	85.11	1,932.13	84.1756	1,932.13	83.823	1,932.13	82.7128	1,932.13	82.5772	1,932.13	80.6009	1,932.13	80.1841	1,932.13	80.6946	1,932.13	79.5181	1,932.13	77.84	1,932.13	78.4663	1,932.13	77.3686	1,932.13	75.584	1,932.13	75.37	1,932.13	73.9909	1,932.13	72.7882	1,932.13	75.1676	1,932.13	73.1751	1,932.13	73.2702	1,932.13	72.5783	1,932.13	71.1346	1,932.13	75.9702	1,932.13	71.2217	1,932.13	62.7865	1,932.13	73.6495	1,932.13	62.0711	1,932.13	68.9004	1,932.13	73.9627
1,999.51	89.3574	1,999.51	89.3292	1,999.51	89.071	1,999.51	88.6254	1,999.51	88.2696	1,999.51	87.2405	1,999.51	87.2288	1,999.51	86.1905	1,999.51	86.3288	1,999.51	84.8617	1,999.51	85.2286	1,999.51	83.3316	1,999.51	83.4875	1,999.51	81.9867	1,999.51	81.7803	1,999.51	79.0311	1,999.51	80.9708	1,999.51	78.8164	1,999.51	77.6982	1,999.51	76.5675	1,999.51	77.2347	1,999.51	75.8856	1,999.51	76.1352	1,999.51	76.5351	1,999.51	75.7716	1,999.51	71.9411	1,999.51	73.7741	1,999.51	72.1632	1,999.51	71.7255	1,999.51	73.9007	1,999.51	72.5656	1,999.51	68.5295	1,999.51	66.621	1,999.51	70.4716	1,999.51	63.9065	1,999.51	40.4168
2,069.82	89.5506	2,069.82	89.2115	2,069.82	88.9345	2,069.82	88.8418	2,069.82	88.5517	2,069.82	88.5581	2,069.82	87.8591	2,069.82	87.1588	2,069.82	86.5353	2,069.82	85.7881	2,069.82	84.8361	2,069.82	84.5451	2,069.82	84.0602	2,069.82	82.3771	2,069.82	81.9126	2,069.82	80.2392	2,069.82	78.8491	2,069.82	78.896	2,069.82	78.309	2,069.82	76.5891	2,069.82	74.8408	2,069.82	76.6381	2,069.82	75.4838	2,069.82	75.4024	2,069.82	74.9347	2,069.82	73.2862	2,069.82	71.9189	2,069.82	73.3293	2,069.82	69.684	2,069.82	74.6665	2,069.82	73.226	2,069.82	74.8478	2,069.82	72.7592	2,069.82	71.9669	2,069.82	69.4071	2,069.82	72.0865
2,143.07	88.6872	2,143.07	88.9053	2,143.07	88.8055	2,143.07	88.6124	2,143.07	88.1816	2,143.07	87.5877	2,143.07	87.1169	2,143.07	86.7584	2,143.07	86.1211	2,143.07	85.3366	2,143.07	84.5302	2,143.07	83.4795	2,143.07	82.3913	2,143.07	81.9691	2,143.07	81.2864	2,143.07	80.375	2,143.07	79.321	2,143.07	79.145	2,143.07	77.8411	2,143.07	76.3774	2,143.07	77.1461	2,143.07	75.3196	2,143.07	74.3831	2,143.07	72.1411	2,143.07	74.7001	2,143.07	74.4221	2,143.07	73.332	2,143.07	73.256	2,143.07	71.0351	2,143.07	73.2115	2,143.07	73.1308	2,143.07	66.369	2,143.07	72.2281	2,143.07	63.6654	2,143.07	70.0611	2,143.07	71.2437
2,219.24	88.2433	2,219.24	87.9443	2,219.24	87.7828	2,219.24	87.2164	2,219.24	87.2116	2,219.24	86.7663	2,219.24	86.1338	2,219.24	85.4367	2,219.24	85.6685	2,219.24	84.1634	2,219.24	84.1313	2,219.24	82.0378	2,219.24	82.3724	2,219.24	80.4547	2,219.24	80.3972	2,219.24	77.3673	2,219.24	78.2768	2,219.24	75.6263	2,219.24	75.9632	2,219.24	74.7325	2,219.24	72.6548	2,219.24	74.5484	2,219.24	73.2194	2,219.24	73.2421	2,219.24	72.9436	2,219.24	72.3678	2,219.24	69.6649	2,219.24	64.6261	2,219.24	68.0638	2,219.24	69.4666	2,219.24	71.3371	2,219.24	70.7609	2,219.24	68.7142	2,219.24	71.997	2,219.24	60.6121	2,219.24	58.5562
2,296.88	88.4873	2,296.88	88.4951	2,296.88	88.3698	2,296.88	87.9539	2,296.88	87.7153	2,296.88	86.6925	2,296.88	87.1751	2,296.88	85.636	2,296.88	85.2219	2,296.88	83.9042	2,296.88	84.4764	2,296.88	82.2462	2,296.88	82.2814	2,296.88	79.9022	2,296.88	80.3249	2,296.88	77.4437	2,296.88	78.6187	2,296.88	76.2604	2,296.88	76.3875	2,296.88	73.2259	2,296.88	75.626	2,296.88	71.6229	2,296.88	71.3266	2,296.88	71.6696	2,296.88	72.8904	2,296.88	71.2329	2,296.88	70.9919	2,296.88	71.0278	2,296.88	70.8475	2,296.88	71.8336	2,296.88	65.6988	2,296.88	67.6354	2,296.88	70.0146	2,296.88	62.5267	2,296.88	56.6893	2,296.88	70.2464
2,378.91	88.2213	2,378.91	87.9635	2,378.91	87.826	2,378.91	87.6243	2,378.91	87.4649	2,378.91	86.9224	2,378.91	86.4059	2,378.91	85.533	2,378.91	85.4859	2,378.91	84.2083	2,378.91	83.7076	2,378.91	82.4393	2,378.91	82.2292	2,378.91	80.4464	2,378.91	79.7547	2,378.91	77.769	2,378.91	78.4967	2,378.91	76.9297	2,378.91	75.6884	2,378.91	75.5446	2,378.91	74.3587	2,378.91	73.2125	2,378.91	72.9349	2,378.91	74.7171	2,378.91	74.4516	2,378.91	70.978	2,378.91	68.4421	2,378.91	70.5567	2,378.91	68.7386	2,378.91	70.7371	2,378.91	68.4889	2,378.91	70.5211	2,378.91	70.8667	2,378.91	61.1713	2,378.91	64.759	2,378.91	66.7106
2,462.4	87.8037	2,462.4	87.7626	2,462.4	87.9401	2,462.4	87.3485	2,462.4	87.2633	2,462.4	86.3738	2,462.4	86.7027	2,462.4	85.2411	2,462.4	85.169	2,462.4	83.4861	2,462.4	83.8375	2,462.4	81.8208	2,462.4	81.7985	2,462.4	79.2875	2,462.4	80.2066	2,462.4	77.9028	2,462.4	77.1458	2,462.4	74.7703	2,462.4	74.0439	2,462.4	72.8536	2,462.4	74.4514	2,462.4	70.9754	2,462.4	67.7375	2,462.4	70.0355	2,462.4	71.4169	2,462.4	71.5143	2,462.4	68.5161	2,462.4	69.6771	2,462.4	66.8258	2,462.4	72.1635	2,462.4	64.215	2,462.4	70.8306	2,462.4	66.99	2,462.4	67.6571	2,462.4	65.4631	2,462.4	61.9464
2,548.83	88.5334	2,548.83	88.1724	2,548.83	88.067	2,548.83	87.6143	2,548.83	87.7717	2,548.83	86.7787	2,548.83	86.7567	2,548.83	85.6023	2,548.83	86.0529	2,548.83	83.8592	2,548.83	84.4442	2,548.83	81.9096	2,548.83	82.5484	2,548.83	80.1227	2,548.83	80.1138	2,548.83	78.0244	2,548.83	78.3335	2,548.83	75.9828	2,548.83	77.2931	2,548.83	74.3492	2,548.83	73.5061	2,548.83	72.4002	2,548.83	72.2487	2,548.83	70.6861	2,548.83	73.8003	2,548.83	66.232	2,548.83	69.2552	2,548.83	69.0099	2,548.83	71.8661	2,548.83	65.7661	2,548.83	70.2303	2,548.83	67.9929	2,548.83	69.8244	2,548.83	65.7535	2,548.83	58.2841	2,548.83	61.2553
2,639.65	87.8653	2,639.65	88.0697	2,639.65	88.0577	2,639.65	87.7298	2,639.65	87.7007	2,639.65	86.7877	2,639.65	86.784	2,639.65	85.6134	2,639.65	85.4954	2,639.65	84.0215	2,639.65	83.9019	2,639.65	81.7552	2,639.65	81.4957	2,639.65	79.3303	2,639.65	79.9963	2,639.65	77.7239	2,639.65	77.2321	2,639.65	74.4193	2,639.65	74.1514	2,639.65	73.5359	2,639.65	72.1187	2,639.65	70.487	2,639.65	70.3421	2,639.65	71.3686	2,639.65	71.0202	2,639.65	69.1957	2,639.65	69.5662	2,639.65	70.5453	2,639.65	68.7698	2,639.65	71.0305	2,639.65	64.6093	2,639.65	67.0155	2,639.65	68.9873	2,639.65	65.1502	2,639.65	59.2282	2,639.65	67.4595
2,731.93	87.7778	2,731.93	87.5245	2,731.93	87.4085	2,731.93	87.1544	2,731.93	86.865	2,731.93	86.7303	2,731.93	86.6403	2,731.93	85.1218	2,731.93	85.5249	2,731.93	83.5379	2,731.93	83.8971	2,731.93	81.1446	2,731.93	81.948	2,731.93	79.1277	2,731.93	79.7177	2,731.93	77.4565	2,731.93	76.4035	2,731.93	75.868	2,731.93	76.5673	2,731.93	73.0404	2,731.93	72.2773	2,731.93	70.9853	2,731.93	70.0078	2,731.93	71.976	2,731.93	71.8233	2,731.93	69.7541	2,731.93	68.7586	2,731.93	70.8558	2,731.93	68.1663	2,731.93	70.7389	2,731.93	67.5144	2,731.93	70.3309	2,731.93	70.1127	2,731.93	57.6163	2,731.93	58.3839	2,731.93	62.4768
2,828.61	88.3249	2,828.61	88.6657	2,828.61	88.6107	2,828.61	88.575	2,828.61	88.5489	2,828.61	87.8838	2,828.61	87.4297	2,828.61	86.0402	2,828.61	86.4037	2,828.61	84.3542	2,828.61	84.7036	2,828.61	82.0271	2,828.61	81.8399	2,828.61	79.9162	2,828.61	79.5165	2,828.61	76.0979	2,828.61	78.2938	2,828.61	74.606	2,828.61	75.4824	2,828.61	74.3702	2,828.61	73.259	2,828.61	71.5279	2,828.61	71.5979	2,828.61	70.093	2,828.61	70.8152	2,828.61	71.3803	2,828.61	70.0283	2,828.61	68.1167	2,828.61	68.5238	2,828.61	69.9193	2,828.61	66.2967	2,828.61	69.1954	2,828.61	68.7184	2,828.61	55.6462	2,828.61	63.5013	2,828.61	61.63
2,928.22	88.1107	2,928.22	88.0833	2,928.22	87.9544	2,928.22	87.6073	2,928.22	87.3745	2,928.22	87.0978	2,928.22	87.1158	2,928.22	86.1362	2,928.22	85.8422	2,928.22	84.2478	2,928.22	83.5832	2,928.22	81.6223	2,928.22	81.4134	2,928.22	79.2435	2,928.22	79.3544	2,928.22	77.6002	2,928.22	75.2157	2,928.22	75.6875	2,928.22	74.9439	2,928.22	72.9816	2,928.22	72.9085	2,928.22	71.8357	2,928.22	69.5826	2,928.22	69.4659	2,928.22	70.3546	2,928.22	69.1209	2,928.22	68.9054	2,928.22	68.9308	2,928.22	66.6633	2,928.22	69.2679	2,928.22	68.4719	2,928.22	65.8485	2,928.22	69.1988	2,928.22	61.6308	2,928.22	58.6456	2,928.22	61.0775
3,030.76	88.0899	3,030.76	88.1143	3,030.76	87.8812	3,030.76	87.9875	3,030.76	87.7826	3,030.76	86.9562	3,030.76	86.9986	3,030.76	85.4529	3,030.76	85.3892	3,030.76	83.2651	3,030.76	83.6487	3,030.76	80.823	3,030.76	81.0724	3,030.76	78.4391	3,030.76	77.9361	3,030.76	76.0422	3,030.76	75.9621	3,030.76	73.6194	3,030.76	72.9657	3,030.76	71.8411	3,030.76	70.5351	3,030.76	70.0418	3,030.76	68.9588	3,030.76	69.4151	3,030.76	68.7644	3,030.76	67.4647	3,030.76	68.4741	3,030.76	69.1359	3,030.76	64.8936	3,030.76	68.0138	3,030.76	62.2769	3,030.76	68.759	3,030.76	65.0848	3,030.76	63.7637	3,030.76	52.4486	3,030.76	64.2534
3,137.7	88.6029	3,137.7	88.8514	3,137.7	88.8397	3,137.7	88.6104	3,137.7	88.4032	3,137.7	87.7946	3,137.7	87.1112	3,137.7	85.7549	3,137.7	85.6651	3,137.7	83.5986	3,137.7	83.3945	3,137.7	81.4076	3,137.7	80.2685	3,137.7	78.6931	3,137.7	77.3586	3,137.7	75.7431	3,137.7	75.715	3,137.7	72.7654	3,137.7	72.4906	3,137.7	70.9791	3,137.7	69.9216	3,137.7	68.1694	3,137.7	67.7267	3,137.7	66.706	3,137.7	68.6136	3,137.7	69.1868	3,137.7	69.2552	3,137.7	66.2906	3,137.7	65.2214	3,137.7	68.3688	3,137.7	61.7425	3,137.7	69.2833	3,137.7	64.4657	3,137.7	60.9031	3,137.7	57.1126	3,137.7	61.1861
3,249.02	88.6044	3,249.02	88.7493	3,249.02	88.6004	3,249.02	88.0517	3,249.02	87.934	3,249.02	87.1739	3,249.02	87.0018	3,249.02	85.4573	3,249.02	85.3605	3,249.02	83.2591	3,249.02	82.4796	3,249.02	80.5334	3,249.02	79.8742	3,249.02	77.0572	3,249.02	76.5427	3,249.02	75.4958	3,249.02	73.1136	3,249.02	73.0677	3,249.02	73.4006	3,249.02	70.8157	3,249.02	69.8141	3,249.02	70.1871	3,249.02	67.1237	3,249.02	67.2751	3,249.02	66.2647	3,249.02	68.0117	3,249.02	67.8327	3,249.02	66.1029	3,249.02	65.9206	3,249.02	62.6806	3,249.02	63.5919	3,249.02	66.5785	3,249.02	64.5535	3,249.02	63.6684	3,249.02	61.476	3,249.02	57.7591
3,363.28	88.6445	3,363.28	88.5002	3,363.28	88.2065	3,363.28	87.9384	3,363.28	87.6531	3,363.28	86.6089	3,363.28	86.6567	3,363.28	84.8907	3,363.28	84.2935	3,363.28	82.4899	3,363.28	81.847	3,363.28	79.5414	3,363.28	79.0196	3,363.28	76.1807	3,363.28	76.0821	3,363.28	73.9374	3,363.28	72.1115	3,363.28	71.9533	3,363.28	71.1014	3,363.28	71.0797	3,363.28	67.3821	3,363.28	68.4735	3,363.28	65.8464	3,363.28	67.6945	3,363.28	64.3068	3,363.28	69.5036	3,363.28	62.4469	3,363.28	66.1584	3,363.28	61.82	3,363.28	64.7333	3,363.28	59.1674	3,363.28	65.4439	3,363.28	64.1829	3,363.28	64.0272	3,363.28	59.6009	3,363.28	54.4818
3,481.93	89.2848	3,481.93	89.1647	3,481.93	89.281	3,481.93	88.737	3,481.93	88.4972	3,481.93	87.4304	3,481.93	86.9857	3,481.93	85.0643	3,481.93	84.7782	3,481.93	82.6503	3,481.93	82.1559	3,481.93	79.4675	3,481.93	78.922	3,481.93	76.7953	3,481.93	76.3373	3,481.93	74.6273	3,481.93	74.0706	3,481.93	71.9673	3,481.93	71.2079	3,481.93	69.5142	3,481.93	68.575	3,481.93	68.1756	3,481.93	66.4302	3,481.93	67.3736	3,481.93	64.8691	3,481.93	69.2974	3,481.93	68.5607	3,481.93	66.897	3,481.93	61.1261	3,481.93	67.9417	3,481.93	60.018	3,481.93	65.7048	3,481.93	60.7639	3,481.93	61.0967	3,481.93	58.9251	3,481.93	55.996
3,604.98	88.8745	3,604.98	88.9187	3,604.98	88.5845	3,604.98	88.2186	3,604.98	87.7024	3,604.98	87.0869	3,604.98	86.065	3,604.98	84.8752	3,604.98	84.1478	3,604.98	81.9375	3,604.98	80.9899	3,604.98	79.6437	3,604.98	78.6056	3,604.98	77.2015	3,604.98	75.3805	3,604.98	74.951	3,604.98	73.2594	3,604.98	71.1422	3,604.98	70.9613	3,604.98	70.0115	3,604.98	68.9235	3,604.98	68.2172	3,604.98	65.9486	3,604.98	67.7912	3,604.98	64.2045	3,604.98	66.225	3,604.98	67.6651	3,604.98	65.5427	3,604.98	63.1115	3,604.98	64.0642	3,604.98	61.241	3,604.98	62.6714	3,604.98	59.9325	3,604.98	60.0218	3,604.98	56.2591	3,604.98	61.3999
3,732.42	88.7124	3,732.42	88.691	3,732.42	88.7044	3,732.42	88.1872	3,732.42	87.9091	3,732.42	86.9426	3,732.42	86.4732	3,732.42	84.7752	3,732.42	84.3289	3,732.42	82.2514	3,732.42	81.7556	3,732.42	79.6193	3,732.42	78.7417	3,732.42	77.3166	3,732.42	76.4181	3,732.42	73.9051	3,732.42	73.3958	3,732.42	71.709	3,732.42	72.2824	3,732.42	71.2875	3,732.42	69.7771	3,732.42	68.0338	3,732.42	67.8962	3,732.42	67.4537	3,732.42	65.4187	3,732.42	65.4262	3,732.42	62.8281	3,732.42	64.3993	3,732.42	65.4851	3,732.42	64.4058	3,732.42	62.6453	3,732.42	61.8919	3,732.42	63.8562	3,732.42	56.6988	3,732.42	61.1259	3,732.42	57.6114
3,864.26	88.9628	3,864.26	88.8566	3,864.26	88.9174	3,864.26	88.2456	3,864.26	88.0746	3,864.26	86.9529	3,864.26	86.6238	3,864.26	84.7645	3,864.26	84.3202	3,864.26	82.0491	3,864.26	82.255	3,864.26	79.6288	3,864.26	79.3153	3,864.26	77.5505	3,864.26	76.931	3,864.26	74.7801	3,864.26	74.2463	3,864.26	71.8403	3,864.26	72.2438	3,864.26	69.2558	3,864.26	67.9173	3,864.26	68.8223	3,864.26	67.8149	3,864.26	64.5186	3,864.26	65.5595	3,864.26	67.735	3,864.26	66.9037	3,864.26	65.7779	3,864.26	63.4182	3,864.26	66.067	3,864.26	63.788	3,864.26	64.784	3,864.26	56.3717	3,864.26	43.8751	3,864.26	60.4002	3,864.26	62.0932
4,000.49	89.1828	4,000.49	89.1936	4,000.49	89.0031	4,000.49	88.333	4,000.49	88.1537	4,000.49	86.9032	4,000.49	86.7372	4,000.49	84.8538	4,000.49	84.7179	4,000.49	82.2282	4,000.49	81.9287	4,000.49	79.3194	4,000.49	79.0722	4,000.49	76.1229	4,000.49	76.1576	4,000.49	74.3016	4,000.49	73.2914	4,000.49	70.1646	4,000.49	71.5398	4,000.49	68.8824	4,000.49	68.1991	4,000.49	67.4859	4,000.49	64.1397	4,000.49	65.3131	4,000.49	63.3179	4,000.49	63.205	4,000.49	65.7318	4,000.49	62.0142	4,000.49	63.4959	4,000.49	62.2844	4,000.49	57.1138	4,000.49	56.4122	4,000.49	60.4684	4,000.49	57.2478	4,000.49	53.1356	4,000.49	61.4688
4,141.11	89.6411	4,141.11	89.2258	4,141.11	89.404	4,141.11	88.3324	4,141.11	88.3571	4,141.11	86.6217	4,141.11	86.5973	4,141.11	84.1555	4,141.11	84.565	4,141.11	81.3478	4,141.11	81.8354	4,141.11	78.2838	4,141.11	78.7195	4,141.11	75.5822	4,141.11	75.5193	4,141.11	71.4506	4,141.11	72.9667	4,141.11	70.3468	4,141.11	70.0697	4,141.11	69.0082	4,141.11	66.5557	4,141.11	66.2669	4,141.11	65.2573	4,141.11	65.2726	4,141.11	61.7767	4,141.11	63.6305	4,141.11	66.267	4,141.11	63.8006	4,141.11	62.1689	4,141.11	65.3923	4,141.11	61.7161	4,141.11	62.3416	4,141.11	60.9399	4,141.11	56.1105	4,141.11	57.6662	4,141.11	58.6246
4,287.6	89.7879	4,287.6	89.5179	4,287.6	89.6049	4,287.6	88.5959	4,287.6	88.46	4,287.6	86.8252	4,287.6	86.7819	4,287.6	84.2939	4,287.6	84.2883	4,287.6	81.4544	4,287.6	81.8957	4,287.6	78.6874	4,287.6	78.9015	4,287.6	75.1246	4,287.6	76.1503	4,287.6	72.6889	4,287.6	73.8736	4,287.6	69.825	4,287.6	70.2557	4,287.6	67.3484	4,287.6	67.9643	4,287.6	64.8522	4,287.6	65.3948	4,287.6	66.0781	4,287.6	64.3852	4,287.6	63.9668	4,287.6	61.8529	4,287.6	65.0194	4,287.6	63.0612	4,287.6	63.0931	4,287.6	60.44	4,287.6	59.3635	4,287.6	60.6445	4,287.6	40.9144	4,287.6	57.3493	4,287.6	57.4657
4,438.48	89.5251	4,438.48	89.0937	4,438.48	89.234	4,438.48	87.893	4,438.48	88.1259	4,438.48	85.8413	4,438.48	86.2834	4,438.48	83.4315	4,438.48	84.0673	4,438.48	80.5461	4,438.48	81.1949	4,438.48	77.2606	4,438.48	78.1122	4,438.48	74.7036	4,438.48	74.9985	4,438.48	71.2315	4,438.48	71.4605	4,438.48	69.8252	4,438.48	70.3658	4,438.48	67.2304	4,438.48	65.246	4,438.48	64.5295	4,438.48	65.7326	4,438.48	63.8003	4,438.48	62.1087	4,438.48	63.9543	4,438.48	65.8286	4,438.48	61.7574	4,438.48	61.8928	4,438.48	65.9011	4,438.48	59.4961	4,438.48	58.3432	4,438.48	62.9118	4,438.48	54.6067	4,438.48	61.6656	4,438.48	58.4109
4,595.21	90.1059	4,595.21	89.6469	4,595.21	89.7876	4,595.21	88.3456	4,595.21	88.4687	4,595.21	86.4764	4,595.21	86.4935	4,595.21	84.0414	4,595.21	84.2135	4,595.21	81.2822	4,595.21	81.7593	4,595.21	78.3814	4,595.21	78.7983	4,595.21	74.5776	4,595.21	75.5841	4,595.21	72.2627	4,595.21	73.0347	4,595.21	68.9517	4,595.21	70.0219	4,595.21	67.3728	4,595.21	69.1464	4,595.21	65.6296	4,595.21	65.3418	4,595.21	63.6409	4,595.21	64.2898	4,595.21	62.289	4,595.21	63.0184	4,595.21	63.6376	4,595.21	59.9107	4,595.21	62.4506	4,595.21	61.5836	4,595.21	61.5754	4,595.21	58.8478	4,595.21	59.6572	4,595.21	60.241	4,595.21	58.0121
4,756.35	89.3437	4,756.35	88.6723	4,756.35	89.038	4,756.35	87.4713	4,756.35	87.7873	4,756.35	85.6857	4,756.35	86.0262	4,756.35	83.4129	4,756.35	84.4173	4,756.35	80.7725	4,756.35	82.0236	4,756.35	77.5707	4,756.35	78.9269	4,756.35	74.8007	4,756.35	75.3714	4,756.35	71.5206	4,756.35	73.0505	4,756.35	68.8954	4,756.35	70.7396	4,756.35	65.4418	4,756.35	68.3686	4,756.35	65.1802	4,756.35	65.2562	4,756.35	64.7588	4,756.35	61.2304	4,756.35	60.3054	4,756.35	65.2568	4,756.35	62.3812	4,756.35	64.5586	4,756.35	61.8538	4,756.35	59.7272	4,756.35	61.0755	4,756.35	61.6332	4,756.35	53.335	4,756.35	61.9302	4,756.35	58.913
4,924.8	89.9387	4,924.8	89.3111	4,924.8	89.5005	4,924.8	88.0389	4,924.8	88.1947	4,924.8	86.4658	4,924.8	86.4949	4,924.8	84.563	4,924.8	84.5936	4,924.8	81.9341	4,924.8	81.8834	4,924.8	78.7157	4,924.8	79.1031	4,924.8	74.9199	4,924.8	75.4724	4,924.8	71.9321	4,924.8	72.3224	4,924.8	70.6016	4,924.8	69.2618	4,924.8	68.9311	4,924.8	66.7921	4,924.8	66.0922	4,924.8	66.5014	4,924.8	62.4544	4,924.8	63.3648	4,924.8	62.5276	4,924.8	65.7049	4,924.8	64.0394	4,924.8	64.7574	4,924.8	62.3157	4,924.8	61.368	4,924.8	61.7566	4,924.8	56.4003	4,924.8	50.5957	4,924.8	52.2695	4,924.8	53.5363
5,097.66	90.2211	5,097.66	89.4868	5,097.66	89.7211	5,097.66	88.1527	5,097.66	88.2149	5,097.66	86.4932	5,097.66	86.5221	5,097.66	84.3144	5,097.66	84.8385	5,097.66	81.1559	5,097.66	81.8565	5,097.66	77.9444	5,097.66	78.4187	5,097.66	73.6822	5,097.66	74.7734	5,097.66	71.8817	5,097.66	72.4205	5,097.66	69	5,097.66	70.1431	5,097.66	67.2923	5,097.66	68.1964	5,097.66	65.9187	5,097.66	65.9198	5,097.66	62.4937	5,097.66	62.1189	5,097.66	62.4153	5,097.66	64.7853	5,097.66	62.204	5,097.66	61.2387	5,097.66	63.4257	5,097.66	46.7883	5,097.66	61.3632	5,097.66	60.1629	5,097.66	43.7723	5,097.66	60.8448	5,097.66	57.0054
5,277.83	90.2916	5,277.83	89.4841	5,277.83	89.7025	5,277.83	88.2731	5,277.83	88.2417	5,277.83	86.7619	5,277.83	86.8273	5,277.83	84.7255	5,277.83	84.9644	5,277.83	81.4129	5,277.83	82.1097	5,277.83	78.3079	5,277.83	78.2774	5,277.83	75.3463	5,277.83	74.8056	5,277.83	72.8945	5,277.83	72.9962	5,277.83	70.4827	5,277.83	70.8386	5,277.83	68.9054	5,277.83	69.389	5,277.83	67.498	5,277.83	66.7232	5,277.83	65.8888	5,277.83	63.9361	5,277.83	65.2816	5,277.83	65.6036	5,277.83	63.7119	5,277.83	59.5042	5,277.83	65.0778	5,277.83	59.7197	5,277.83	62.407	5,277.83	61.0879	5,277.83	40.2812	5,277.83	58.6289	5,277.83	58.5827
5,463.87	90.3555	5,463.87	89.5689	5,463.87	89.7972	5,463.87	88.4142	5,463.87	88.3383	5,463.87	87.0587	5,463.87	86.898	5,463.87	84.9958	5,463.87	84.8878	5,463.87	81.4877	5,463.87	81.5021	5,463.87	78.367	5,463.87	77.9313	5,463.87	75.8095	5,463.87	75.1094	5,463.87	73.601	5,463.87	73.4523	5,463.87	71.246	5,463.87	70.3259	5,463.87	67.8176	5,463.87	67.5652	5,463.87	66.4155	5,463.87	66.1466	5,463.87	63.4289	5,463.87	64.715	5,463.87	64.2665	5,463.87	65.0776	5,463.87	65.1362	5,463.87	63.2708	5,463.87	60.9139	5,463.87	60.4854	5,463.87	62.4081	5,463.87	59.0759	5,463.87	56.6341	5,463.87	58.1339	5,463.87	54.7302
5,657.23	90.3975	5,657.23	89.696	5,657.23	89.9124	5,657.23	88.5195	5,657.23	88.4488	5,657.23	87.0993	5,657.23	87.161	5,657.23	84.6343	5,657.23	85.1371	5,657.23	81.1887	5,657.23	81.8305	5,657.23	78.2677	5,657.23	79.1586	5,657.23	75.8539	5,657.23	76.6654	5,657.23	74.0589	5,657.23	73.9029	5,657.23	71.2368	5,657.23	71.5947	5,657.23	68.502	5,657.23	70.149	5,657.23	67.0697	5,657.23	66.5684	5,657.23	66.3129	5,657.23	64.0538	5,657.23	64.6962	5,657.23	66.3706	5,657.23	65.503	5,657.23	61.0934	5,657.23	63.6135	5,657.23	59.608	5,657.23	63.0006	5,657.23	61.9471	5,657.23	48.1358	5,657.23	56.1958	5,657.23	57.7361
5,856.45	89.9379	5,856.45	89.0359	5,856.45	89.4414	5,856.45	87.9762	5,856.45	88.1371	5,856.45	86.5759	5,856.45	86.8996	5,856.45	84.042	5,856.45	84.882	5,856.45	81.1673	5,856.45	81.9553	5,856.45	79.0436	5,856.45	79.27	5,856.45	76.7756	5,856.45	76.951	5,856.45	74.1733	5,856.45	74.5528	5,856.45	72.3255	5,856.45	71.8592	5,856.45	69.6607	5,856.45	69.7982	5,856.45	66.6381	5,856.45	67.4049	5,856.45	65.4899	5,856.45	65.0782	5,856.45	66.888	5,856.45	66.1734	5,856.45	64.8533	5,856.45	61.4516	5,856.45	63.7431	5,856.45	63.5541	5,856.45	62.3288	5,856.45	62.217	5,856.45	59.9229	5,856.45	61.8787	5,856.45	57.7051
6,062.99	89.2903	6,062.99	88.3659	6,062.99	88.648	6,062.99	87.8518	6,062.99	87.6957	6,062.99	86.4023	6,062.99	86.3251	6,062.99	84.045	6,062.99	84.0289	6,062.99	81.215	6,062.99	80.8938	6,062.99	79.2535	6,062.99	78.8692	6,062.99	76.4879	6,062.99	76.5382	6,062.99	73.9144	6,062.99	73.8446	6,062.99	71.7424	6,062.99	70.8817	6,062.99	68.6887	6,062.99	69.0065	6,062.99	67.0972	6,062.99	66.2233	6,062.99	64.7318	6,062.99	64.3747	6,062.99	63.9267	6,062.99	63.9365	6,062.99	64.3876	6,062.99	61.6118	6,062.99	61.8933	6,062.99	58.7168	6,062.99	58.6038	6,062.99	64.1814	6,062.99	51.5566	6,062.99	56.317	6,062.99	55.7981
6,276.86	89.3028	6,276.86	88.9451	6,276.86	88.9547	6,276.86	88.104	6,276.86	87.9333	6,276.86	86.435	6,276.86	86.4563	6,276.86	83.393	6,276.86	83.6143	6,276.86	81.2498	6,276.86	81.1609	6,276.86	79.352	6,276.86	79.3261	6,276.86	76.8997	6,276.86	76.6644	6,276.86	74.1989	6,276.86	74.0012	6,276.86	70.73	6,276.86	71.1214	6,276.86	68.0785	6,276.86	69.0016	6,276.86	66.3487	6,276.86	66.3235	6,276.86	63.9293	6,276.86	64.6799	6,276.86	61.4772	6,276.86	64.4278	6,276.86	64.3091	6,276.86	62.3259	6,276.86	59.8767	6,276.86	58.5861	6,276.86	62.2915	6,276.86	55.4991	6,276.86	61.0716	6,276.86	59.6624	6,276.86	59.3905
6,498.05	88.8291	6,498.05	88.3698	6,498.05	88.7718	6,498.05	87.731	6,498.05	87.8941	6,498.05	85.3373	6,498.05	85.618	6,498.05	82.9206	6,498.05	83.3663	6,498.05	81.1521	6,498.05	81.517	6,498.05	78.9487	6,498.05	79.1881	6,498.05	76.1411	6,498.05	76.5542	6,498.05	72.6639	6,498.05	73.6402	6,498.05	69.5577	6,498.05	70.5773	6,498.05	66.9052	6,498.05	68.6768	6,498.05	65.0619	6,498.05	66.8459	6,498.05	62.3121	6,498.05	63.0891	6,498.05	62.8572	6,498.05	63.8068	6,498.05	65.6857	6,498.05	61.2441	6,498.05	62.0629	6,498.05	59.8646	6,498.05	59.9821	6,498.05	60.8954	6,498.05	59.9623	6,498.05	59.8474	6,498.05	56.248
6,726.56	88.6615	6,726.56	88.4294	6,726.56	88.488	6,726.56	87.84	6,726.56	87.9289	6,726.56	85.2891	6,726.56	85.91	6,726.56	83.2251	6,726.56	83.4982	6,726.56	81.3942	6,726.56	81.5835	6,726.56	78.6863	6,726.56	78.9852	6,726.56	75.216	6,726.56	75.6943	6,726.56	72.2834	6,726.56	73.4462	6,726.56	70.1694	6,726.56	70.2684	6,726.56	68.4422	6,726.56	67.6414	6,726.56	65.5405	6,726.56	65.9905	6,726.56	64.3235	6,726.56	62.7646	6,726.56	63.5434	6,726.56	62.069	6,726.56	64.1316	6,726.56	56.9054	6,726.56	62.499	6,726.56	59.3861	6,726.56	57.3033	6,726.56	60.4191	6,726.56	58.0143	6,726.56	59.6337	6,726.56	54.8822
6,963.87	88.7054	6,963.87	88.8923	6,963.87	88.9636	6,963.87	88.3995	6,963.87	88.4492	6,963.87	85.8508	6,963.87	86.4052	6,963.87	84.5442	6,963.87	84.3726	6,963.87	82.4801	6,963.87	82.6073	6,963.87	79.4633	6,963.87	79.7295	6,963.87	76.1493	6,963.87	76.2766	6,963.87	73.6212	6,963.87	73.1382	6,963.87	71.4103	6,963.87	70.9657	6,963.87	67.7192	6,963.87	67.6296	6,963.87	65.9068	6,963.87	65.2041	6,963.87	63.1683	6,963.87	62.2301	6,963.87	61.8994	6,963.87	62.9768	6,963.87	63.6794	6,963.87	60.2735	6,963.87	60.3966	6,963.87	61.8186	6,963.87	61.3626	6,963.87	64.0612	6,963.87	58.0354	6,963.87	57.1414	6,963.87	52.8207
7,209.96	88.5328	7,209.96	89.0038	7,209.96	88.8705	7,209.96	88.313	7,209.96	88.5638	7,209.96	86.2948	7,209.96	86.4452	7,209.96	85.0735	7,209.96	84.9771	7,209.96	82.9277	7,209.96	82.8603	7,209.96	79.7853	7,209.96	79.7752	7,209.96	77.1137	7,209.96	76.709	7,209.96	74.5311	7,209.96	74.7896	7,209.96	71.4223	7,209.96	71.667	7,209.96	68.699	7,209.96	69.9899	7,209.96	66.7146	7,209.96	66.3921	7,209.96	64.62	7,209.96	65.6896	7,209.96	63.0933	7,209.96	61.1922	7,209.96	61.34	7,209.96	59.0509	7,209.96	58.7898	7,209.96	63.4509	7,209.96	61.1349	7,209.96	59.8951	7,209.96	57.7239	7,209.96	61.1492	7,209.96	54.3141
7,464.84	87.8296	7,464.84	88.5575	7,464.84	88.4507	7,464.84	87.9243	7,464.84	88.1562	7,464.84	86.1051	7,464.84	86.3454	7,464.84	85.0416	7,464.84	85.4359	7,464.84	82.4418	7,464.84	83.0869	7,464.84	79.9399	7,464.84	80.3169	7,464.84	78.0955	7,464.84	78.04	7,464.84	75.285	7,464.84	75.7007	7,464.84	72.1554	7,464.84	72.3256	7,464.84	69.328	7,464.84	69.6228	7,464.84	67.345	7,464.84	67.6973	7,464.84	63.3401	7,464.84	65.1779	7,464.84	64.5119	7,464.84	62.1591	7,464.84	64.7181	7,464.84	62.8662	7,464.84	61.7373	7,464.84	61.1168	7,464.84	55.9365	7,464.84	61.1801	7,464.84	57.8533	7,464.84	58.9855	7,464.84	52.4369
7,727.05	87.9824	7,727.05	88.235	7,727.05	88.1407	7,727.05	87.2898	7,727.05	87.6155	7,727.05	85.6609	7,727.05	86.1628	7,727.05	84.4822	7,727.05	84.8423	7,727.05	81.6376	7,727.05	82.4777	7,727.05	80.2098	7,727.05	80.4825	7,727.05	77.879	7,727.05	78.1943	7,727.05	74.7986	7,727.05	75.6241	7,727.05	71.5246	7,727.05	71.9035	7,727.05	68.8716	7,727.05	69.3838	7,727.05	66.2161	7,727.05	67.6998	7,727.05	64.0227	7,727.05	64.5279	7,727.05	63.0255	7,727.05	60.0097	7,727.05	62.6911	7,727.05	61.7349	7,727.05	60.8591	7,727.05	64.4922	7,727.05	59.0217	7,727.05	61.8027	7,727.05	58.4014	7,727.05	58.588	7,727.05	56.1556
7,999.51	88.4878	7,999.51	88.206	7,999.51	88.1161	7,999.51	86.8425	7,999.51	87.0252	7,999.51	85.4826	7,999.51	85.6401	7,999.51	83.6252	7,999.51	84.2572	7,999.51	81.5175	7,999.51	81.8535	7,999.51	80.0959	7,999.51	80.5331	7,999.51	76.9635	7,999.51	78.0131	7,999.51	73.9833	7,999.51	74.2974	7,999.51	70.3131	7,999.51	71.4191	7,999.51	67.2133	7,999.51	68.3962	7,999.51	65.3636	7,999.51	64.9665	7,999.51	64.3023	7,999.51	62.5622	7,999.51	59.3763	7,999.51	62.7197	7,999.51	60.6048	7,999.51	59.5808	7,999.51	59.3604	7,999.51	62.3815	7,999.51	57.897	7,999.51	59.4965	7,999.51	58.8334	7,999.51	58.934	7,999.51	54.8105
8,282.23	88.9138	8,282.23	87.959	8,282.23	88.144	8,282.23	86.4881	8,282.23	86.6137	8,282.23	85.0789	8,282.23	85.337	8,282.23	82.8003	8,282.23	83.5919	8,282.23	81.534	8,282.23	81.8722	8,282.23	80.2342	8,282.23	80.3054	8,282.23	76.859	8,282.23	76.625	8,282.23	72.5153	8,282.23	73.7375	8,282.23	68.9566	8,282.23	69.5284	8,282.23	65.8176	8,282.23	68.0573	8,282.23	61.3695	8,282.23	64.1788	8,282.23	61.1207	8,282.23	62.1762	8,282.23	61.095	8,282.23	65.056	8,282.23	59.0452	8,282.23	58.7634	8,282.23	56.1895	8,282.23	61.4879	8,282.23	60.79	8,282.23	60.6071	8,282.23	56.4693	8,282.23	56.2902	8,282.23	54.3483
8,573.73	89.5607	8,573.73	88.1974	8,573.73	88.5461	8,573.73	86.82	8,573.73	86.7078	8,573.73	85.0434	8,573.73	85.2737	8,573.73	82.9263	8,573.73	83.3976	8,573.73	81.8376	8,573.73	82.15	8,573.73	79.4331	8,573.73	79.9354	8,573.73	74.9281	8,573.73	76.0657	8,573.73	71.0049	8,573.73	72.0984	8,573.73	67.046	8,573.73	67.6051	8,573.73	66.1234	8,573.73	65.6995	8,573.73	62.1991	8,573.73	63.3044	8,573.73	60.3969	8,573.73	61.2489	8,573.73	60.3792	8,573.73	62.4837	8,573.73	58.8808	8,573.73	59.8985	8,573.73	59.856	8,573.73	59.1837	8,573.73	60.0709	8,573.73	55.1755	8,573.73	49.9031	8,573.73	56.1356	8,573.73	51.1486
8,876.95	90.0918	8,876.95	88.511	8,876.95	89.0646	8,876.95	87.1966	8,876.95	87.2427	8,876.95	84.9417	8,876.95	85.5177	8,876.95	83.1577	8,876.95	83.5062	8,876.95	81.8325	8,876.95	82.0755	8,876.95	78.3454	8,876.95	79.1717	8,876.95	74.2172	8,876.95	74.9225	8,876.95	70.396	8,876.95	71.7488	8,876.95	67.9046	8,876.95	68.0638	8,876.95	65.7463	8,876.95	63.7626	8,876.95	62.3586	8,876.95	61.3004	8,876.95	60.3154	8,876.95	61.04	8,876.95	57.7719	8,876.95	52.4553	8,876.95	59.9412	8,876.95	60.0551	8,876.95	57.4646	8,876.95	56.6573	8,876.95	56.4752	8,876.95	56.4789	8,876.95	58.6708	8,876.95	56.0107	8,876.95	50.8926
9,188.96	90.0961	9,188.96	88.4028	9,188.96	89.0678	9,188.96	87.3875	9,188.96	87.3768	9,188.96	84.7897	9,188.96	85.5747	9,188.96	83.3576	9,188.96	83.8287	9,188.96	81.7856	9,188.96	82.2364	9,188.96	78.1831	9,188.96	79.1756	9,188.96	74.8729	9,188.96	75.1942	9,188.96	71.3654	9,188.96	71.8972	9,188.96	67.5969	9,188.96	69.0348	9,188.96	64.332	9,188.96	66.0405	9,188.96	60.9433	9,188.96	61.9761	9,188.96	59.9515	9,188.96	60.7548	9,188.96	58.1967	9,188.96	60.48	9,188.96	59.4069	9,188.96	59.1365	9,188.96	52.6307	9,188.96	60.03	9,188.96	59.8772	9,188.96	55.4522	9,188.96	54.042	9,188.96	54.8405	9,188.96	48.1595
9,514.16	89.7735	9,514.16	88.272	9,514.16	88.7754	9,514.16	87.3541	9,514.16	87.4723	9,514.16	84.8104	9,514.16	85.4286	9,514.16	83.6722	9,514.16	84.0457	9,514.16	81.6144	9,514.16	82.1487	9,514.16	78.2021	9,514.16	78.834	9,514.16	75.1839	9,514.16	75.4177	9,514.16	70.3311	9,514.16	71.4805	9,514.16	67.1801	9,514.16	68.0793	9,514.16	64.1654	9,514.16	64.882	9,514.16	60.7548	9,514.16	63.1143	9,514.16	56.2037	9,514.16	58.5876	9,514.16	59.9855	9,514.16	61.1843	9,514.16	59.8495	9,514.16	58.1187	9,514.16	57.0741	9,514.16	59.1069	9,514.16	55.1183	9,514.16	56.8874	9,514.16	57.2966	9,514.16	51.1629	9,514.16	50.5462
9,849.61	89.5235	9,849.61	88.2405	9,849.61	88.6415	9,849.61	87.5069	9,849.61	87.367	9,849.61	84.9443	9,849.61	85.3543	9,849.61	83.89	9,849.61	84.2677	9,849.61	81.2357	9,849.61	82.0565	9,849.61	77.8939	9,849.61	78.6299	9,849.61	74.2738	9,849.61	74.8826	9,849.61	69.7776	9,849.61	71.0548	9,849.61	66.3021	9,849.61	67.7185	9,849.61	62.6681	9,849.61	64.2943	9,849.61	56.9751	9,849.61	60.9898	9,849.61	55.0928	9,849.61	58.7821	9,849.61	58.7301	9,849.61	58.0043	9,849.61	59.3222	9,849.61	57.3326	9,849.61	58.8914	9,849.61	56.1137	9,849.61	54.5197	9,849.61	54.9893	9,849.61	56.4463	9,849.61	55.9098	9,849.61	51.5709
10,196.8	89.1748	10,196.8	88.2331	10,196.8	88.4143	10,196.8	87.5818	10,196.8	87.3083	10,196.8	85.2745	10,196.8	85.4995	10,196.8	84.0166	10,196.8	84.3489	10,196.8	81.327	10,196.8	82.0051	10,196.8	77.6662	10,196.8	78.8056	10,196.8	73.2889	10,196.8	74.8843	10,196.8	68.9083	10,196.8	70.1782	10,196.8	66.133	10,196.8	67.3025	10,196.8	63.6469	10,196.8	63.0535	10,196.8	59.4232	10,196.8	62.0307	10,196.8	57.9444	10,196.8	60.5223	10,196.8	61.2631	10,196.8	61.3388	10,196.8	57.5636	10,196.8	59.9586	10,196.8	52.793	10,196.8	58.1015	10,196.8	57.8255	10,196.8	58.5642	10,196.8	53.7595	10,196.8	51.7505	10,196.8	51.2789
10,555.7	88.3843	10,555.7	87.9367	10,555.7	87.7821	10,555.7	87.1843	10,555.7	87.0664	10,555.7	85.6298	10,555.7	85.6187	10,555.7	83.8861	10,555.7	84.3297	10,555.7	81.2587	10,555.7	81.6867	10,555.7	77.2685	10,555.7	78.4169	10,555.7	73.3816	10,555.7	74.7782	10,555.7	69.5058	10,555.7	69.8758	10,555.7	67.2593	10,555.7	67.8121	10,555.7	62.0684	10,555.7	63.5013	10,555.7	60.648	10,555.7	61.5794	10,555.7	57.8801	10,555.7	60.8972	10,555.7	59.8684	10,555.7	61.5567	10,555.7	56.5193	10,555.7	59.5846	10,555.7	57.121	10,555.7	58.9348	10,555.7	54.9054	10,555.7	56.6288	10,555.7	55.3413	10,555.7	49.1093	10,555.7	48.8711
10,927.7	87.7193	10,927.7	87.5578	10,927.7	87.4773	10,927.7	86.8607	10,927.7	86.7759	10,927.7	85.7515	10,927.7	85.701	10,927.7	83.5137	10,927.7	83.8419	10,927.7	80.9376	10,927.7	81.514	10,927.7	77.0093	10,927.7	77.7162	10,927.7	72.9533	10,927.7	74.0949	10,927.7	69.5565	10,927.7	70.4345	10,927.7	67.015	10,927.7	67.1002	10,927.7	63.863	10,927.7	63.2964	10,927.7	61.0756	10,927.7	61.6081	10,927.7	59.22	10,927.7	59.4975	10,927.7	58.7764	10,927.7	60.5703	10,927.7	56.014	10,927.7	58.508	10,927.7	57.4984	10,927.7	57.4186	10,927.7	58.4482	10,927.7	57.6905	10,927.7	54.2616	10,927.7	49.4127	10,927.7	50.5678
11,313	87.4865	11,313	87.6777	11,313	87.7294	11,313	86.6091	11,313	86.6121	11,313	85.4717	11,313	85.8036	11,313	83.1517	11,313	83.709	11,313	80.6575	11,313	81.0886	11,313	76.7893	11,313	77.4548	11,313	73.5134	11,313	74.1447	11,313	70.0072	11,313	70.3673	11,313	66.8595	11,313	66.6407	11,313	62.903	11,313	62.7754	11,313	61.6433	11,313	61.7558	11,313	57.5663	11,313	59.7306	11,313	60.0079	11,313	59.0065	11,313	54.7117	11,313	56.9273	11,313	57.4583	11,313	57.2523	11,313	58.9099	11,313	55.8034	11,313	56.0881	11,313	51.1545	11,313	52.9454
11,712.9	88.2685	11,712.9	88.1575	11,712.9	88.3195	11,712.9	86.6691	11,712.9	86.9348	11,712.9	85.3835	11,712.9	85.9469	11,712.9	82.7073	11,712.9	83.4305	11,712.9	79.6026	11,712.9	80.5786	11,712.9	76.8422	11,712.9	77.3702	11,712.9	73.7352	11,712.9	73.7836	11,712.9	69.0639	11,712.9	70.5053	11,712.9	66.4936	11,712.9	66.2603	11,712.9	60.3918	11,712.9	62.9847	11,712.9	59.4101	11,712.9	61.1563	11,712.9	58.052	11,712.9	57.8021	11,712.9	59.4751	11,712.9	57.8992	11,712.9	57.2752	11,712.9	55.4741	11,712.9	55.6686	11,712.9	56.8695	11,712.9	55.0324	11,712.9	43.462	11,712.9	53.5122	11,712.9	50.9902	11,712.9	48.4315
12,126	88.7994	12,126	88.5323	12,126	88.6116	12,126	86.9204	12,126	86.9041	12,126	85.2769	12,126	85.5833	12,126	82.6943	12,126	83.2517	12,126	79.5753	12,126	80.1345	12,126	77.1239	12,126	77.5816	12,126	73.6684	12,126	74.0949	12,126	68.8154	12,126	69.9393	12,126	65.2013	12,126	65.9738	12,126	61.3526	12,126	63.7024	12,126	59.9002	12,126	61.0317	12,126	56.8384	12,126	59.4825	12,126	56.8634	12,126	55.0831	12,126	57.509	12,126	52.4751	12,126	48.6312	12,126	43.17	12,126	56.5942	12,126	51.861	12,126	49.7067	12,126	52.2464	12,126	51.3227
12,553.7	89.0802	12,553.7	88.3991	12,553.7	88.5772	12,553.7	86.8458	12,553.7	86.6134	12,553.7	84.9416	12,553.7	85.2844	12,553.7	82.563	12,553.7	83.0853	12,553.7	79.6304	12,553.7	80.0004	12,553.7	77.0844	12,553.7	77.6794	12,553.7	73.3258	12,553.7	73.7949	12,553.7	68.5267	12,553.7	69.3337	12,553.7	64.5494	12,553.7	64.8158	12,553.7	61.2558	12,553.7	62.6428	12,553.7	60.4153	12,553.7	60.8362	12,553.7	57.7731	12,553.7	55.3827	12,553.7	58.9431	12,553.7	46.2241	12,553.7	52.9011	12,553.7	55.1004	12,553.7	51.8439	12,553.7	47.2618	12,553.7	46.9874	12,553.7	52.1221	12,553.7	54.1963	12,553.7	47.854	12,553.7	49.0527
12,996.1	89.122	12,996.1	88.1568	12,996.1	88.2032	12,996.1	86.705	12,996.1	86.345	12,996.1	85.2001	12,996.1	85.1296	12,996.1	82.7382	12,996.1	82.8489	12,996.1	80.3441	12,996.1	79.9731	12,996.1	76.5841	12,996.1	76.5888	12,996.1	72.46	12,996.1	72.0853	12,996.1	67.7717	12,996.1	67.9511	12,996.1	64.5726	12,996.1	64.4322	12,996.1	61.2497	12,996.1	61.1556	12,996.1	58.6697	12,996.1	58.9434	12,996.1	59.0232	12,996.1	58.2261	12,996.1	54.7771	12,996.1	49.9882	12,996.1	54.7951	12,996.1	51.7441	12,996.1	45.4179	12,996.1	49.9986	12,996.1	46.8456	12,996.1	49.1439	12,996.1	51.8106	12,996.1	39.4001	12,996.1	43.0298
13,454.6	88.6559	13,454.6	87.2301	13,454.6	87.4245	13,454.6	86.4005	13,454.6	85.9758	13,454.6	84.8868	13,454.6	84.829	13,454.6	82.2808	13,454.6	82.567	13,454.6	80.0053	13,454.6	80.0885	13,454.6	76.4256	13,454.6	76.3854	13,454.6	72.7856	13,454.6	73.3838	13,454.6	70.0362	13,454.6	69.386	13,454.6	66.6686	13,454.6	65.8161	13,454.6	62.5211	13,454.6	61.8502	13,454.6	59.9145	13,454.6	60.3013	13,454.6	59.425	13,454.6	58.5308	13,454.6	58.5	13,454.6	48.5667	13,454.6	54.5812	13,454.6	50.9919	13,454.6	50.4035	13,454.6	45.5454	13,454.6	44.8882	13,454.6	49.1107	13,454.6	51.532	13,454.6	42.1202	13,454.6	46.5141
13,929.2	88.9082	13,929.2	87.3539	13,929.2	87.4816	13,929.2	86.6298	13,929.2	86.5219	13,929.2	84.8573	13,929.2	85.3564	13,929.2	82.0816	13,929.2	82.8214	13,929.2	80.3809	13,929.2	80.7911	13,929.2	77.8024	13,929.2	77.9234	13,929.2	74.7633	13,929.2	74.4139	13,929.2	70.9312	13,929.2	71.367	13,929.2	67.5434	13,929.2	67.37	13,929.2	63.5928	13,929.2	63.2475	13,929.2	61.7176	13,929.2	60.6923	13,929.2	60.2471	13,929.2	58.8084	13,929.2	52.8294	13,929.2	50.8395	13,929.2	54.0238	13,929.2	53.5575	13,929.2	44.4558	13,929.2	54.3338	13,929.2	49.343	13,929.2	47.1457	13,929.2	47.1538	13,929.2	46.2764	13,929.2	18.076
14,419.9	88.9517	14,419.9	87.5746	14,419.9	87.7626	14,419.9	86.7942	14,419.9	87.0345	14,419.9	84.3954	14,419.9	85.3258	14,419.9	81.8371	14,419.9	82.7947	14,419.9	80.3722	14,419.9	80.5287	14,419.9	78.3603	14,419.9	78.0388	14,419.9	75.0104	14,419.9	75.1838	14,419.9	70.4965	14,419.9	70.6924	14,419.9	66.5493	14,419.9	66.6983	14,419.9	63.0869	14,419.9	62.6598	14,419.9	61.6151	14,419.9	60.5909	14,419.9	58.2467	14,419.9	58.883	14,419.9	53.6467	14,419.9	44.9105	14,419.9	52.2173	14,419.9	51.3028	14,419.9	48.0792	14,419.9	48.1095	14,419.9	41.365	14,419.9	47.4224	14,419.9	40.9147	14,419.9	51.4072	14,419.9	41.2639
14,928.2	88.8234	14,928.2	87.7585	14,928.2	88.168	14,928.2	86.7949	14,928.2	87.2988	14,928.2	84.0948	14,928.2	85.2043	14,928.2	82.1406	14,928.2	82.7519	14,928.2	80.3921	14,928.2	80.3909	14,928.2	77.9079	14,928.2	77.863	14,928.2	74.5039	14,928.2	74.7055	14,928.2	69.3	14,928.2	69.3754	14,928.2	65.0266	14,928.2	65.295	14,928.2	62.0269	14,928.2	61.1243	14,928.2	58.8978	14,928.2	60.57	14,928.2	57.3044	14,928.2	56.1191	14,928.2	52.4595	14,928.2	45.2202	14,928.2	50.7862	14,928.2	52.7648	14,928.2	41.9542	14,928.2	51.2551	14,928.2	43.6423	14,928.2	42.3746	14,928.2	49.733	14,928.2	46.3982	14,928.2	37.2236
15,455.6	88.4175	15,455.6	87.6048	15,455.6	88.0684	15,455.6	86.4443	15,455.6	86.751	15,455.6	83.9432	15,455.6	84.5288	15,455.6	82.4863	15,455.6	82.557	15,455.6	79.8335	15,455.6	79.8241	15,455.6	77.6809	15,455.6	77.3834	15,455.6	73.2849	15,455.6	73.451	15,455.6	68.1084	15,455.6	67.9564	15,455.6	62.8599	15,455.6	63.5068	15,455.6	62.0444	15,455.6	61.9256	15,455.6	57.9934	15,455.6	58.7446	15,455.6	56.2685	15,455.6	50.7097	15,455.6	49.6452	15,455.6	52.0038	15,455.6	46.3405	15,455.6	48.8139	15,455.6	45.9934	15,455.6	50.5546	15,455.6	46.0304	15,455.6	49.6308	15,455.6	49.5604	15,455.6	44.0101	15,455.6	46.1694
16,000.5	86.8893	16,000.5	86.7464	16,000.5	87.0865	16,000.5	85.9111	16,000.5	86.0771	16,000.5	84.181	16,000.5	84.437	16,000.5	82.5186	16,000.5	82.5234	16,000.5	79.8929	16,000.5	79.8188	16,000.5	77.2292	16,000.5	77.4011	16,000.5	72.0906	16,000.5	72.4707	16,000.5	66.931	16,000.5	68.0188	16,000.5	62.5136	16,000.5	63.4131	16,000.5	61.0104	16,000.5	60.3655	16,000.5	57.1281	16,000.5	57.6985	16,000.5	53.7729	16,000.5	51.4038	16,000.5	50.0853	16,000.5	48.3256	16,000.5	51.2403	16,000.5	50.4461	16,000.5	48.7139	16,000.5	52.928	16,000.5	48.5503	16,000.5	53.3553	16,000.5	51.2216	16,000.5	41.2414	16,000.5	44.2811
16,564.5	85.8268	16,564.5	86.6204	16,564.5	86.7816	16,564.5	85.6087	16,564.5	85.7022	16,564.5	84.2342	16,564.5	84.3328	16,564.5	82.1696	16,564.5	82.4565	16,564.5	80.0666	16,564.5	80.0166	16,564.5	76.473	16,564.5	76.9754	16,564.5	71.8421	16,564.5	72.3211	16,564.5	67.3156	16,564.5	68.4146	16,564.5	63.2298	16,564.5	64.6094	16,564.5	61.7073	16,564.5	61.6341	16,564.5	59.3373	16,564.5	58.542	16,564.5	55.9979	16,564.5	54.1889	16,564.5	51.4116	16,564.5	51.6701	16,564.5	49.58	16,564.5	50.5069	16,564.5	38.9065	16,564.5	50.3392	16,564.5	55.1736	16,564.5	44.7747	16,564.5	26.0658	16,564.5	51.3155	16,564.5	36.8042
17,148.9	85.9286	17,148.9	86.9054	17,148.9	86.8926	17,148.9	85.4289	17,148.9	85.3996	17,148.9	84.1443	17,148.9	84.1886	17,148.9	81.6534	17,148.9	81.8148	17,148.9	79.7304	17,148.9	79.9755	17,148.9	75.7779	17,148.9	75.9833	17,148.9	72.3212	17,148.9	73.0892	17,148.9	68.5608	17,148.9	69.5071	17,148.9	63.9867	17,148.9	64.9348	17,148.9	61.7769	17,148.9	61.9364	17,148.9	57.6564	17,148.9	57.9333	17,148.9	52.2738	17,148.9	53.8051	17,148.9	45.4543	17,148.9	51.6806	17,148.9	48.8406	17,148.9	45.3543	17,148.9	43.2834	17,148.9	48.2772	17,148.9	40.2702	17,148.9	49.2743	17,148.9	50.7183	17,148.9	45.4163	17,148.9	31.5601
17,752.4	85.6901	17,752.4	86.4189	17,752.4	86.297	17,752.4	85.0597	17,752.4	84.9642	17,752.4	83.7021	17,752.4	83.827	17,752.4	81.3653	17,752.4	81.3294	17,752.4	78.5275	17,752.4	79.4003	17,752.4	75.4355	17,752.4	75.898	17,752.4	72.2736	17,752.4	72.8854	17,752.4	67.3878	17,752.4	69.1238	17,752.4	62.7411	17,752.4	64.2605	17,752.4	59.6294	17,752.4	59.5453	17,752.4	55.156	17,752.4	56.5596	17,752.4	50.1599	17,752.4	51.5018	17,752.4	42.4752	17,752.4	57.845	17,752.4	43.4901	17,752.4	49.4257	17,752.4	40.9751	17,752.4	36.4086	17,752.4	42.1451	17,752.4	37.416	17,752.4	48.2316	17,752.4	41.803	17,752.4	32.0733
18,379.4	85.1399	18,379.4	85.533	18,379.4	85.477	18,379.4	84.5172	18,379.4	84.3407	18,379.4	83.0818	18,379.4	83.2823	18,379.4	81.2432	18,379.4	81.3828	18,379.4	78.057	18,379.4	78.9031	18,379.4	75.0316	18,379.4	76.0425	18,379.4	71.3278	18,379.4	72.5695	18,379.4	65.3666	18,379.4	67.2127	18,379.4	60.3039	18,379.4	62.5584	18,379.4	58.6759	18,379.4	59.1462	18,379.4	54.4429	18,379.4	55.8208	18,379.4	52.1838	18,379.4	50.0424	18,379.4	48.5629	18,379.4	50.493	18,379.4	45.0762	18,379.4	45.4848	18,379.4	45.7075	18,379.4	40.972	18,379.4	43.4323	18,379.4	43.4607	18,379.4	44.7124	18,379.4	36.7446	18,379.4	40.9038
19,026.9	84.7748	19,026.9	84.9245	19,026.9	84.8913	19,026.9	84.0322	19,026.9	83.8651	19,026.9	82.9742	19,026.9	82.8224	19,026.9	81.3691	19,026.9	81.6083	19,026.9	78.3493	19,026.9	79.039	19,026.9	75.1823	19,026.9	75.9454	19,026.9	70.5899	19,026.9	71.8502	19,026.9	65.9507	19,026.9	66.5743	19,026.9	61.8179	19,026.9	63.0083	19,026.9	59.0569	19,026.9	59.1475	19,026.9	54.6157	19,026.9	55.2064	19,026.9	49.016	19,026.9	48.403	19,026.9	50.7557	19,026.9	51.4584	19,026.9	39.3694	19,026.9	43.8756	19,026.9	41.0057	19,026.9	46.9267	19,026.9	49.9169	19,026.9	45.2559	19,026.9	46.9965	19,026.9	41.8927	19,026.9	34.8418
19,697.8	83.8228	19,697.8	84.0312	19,697.8	84.0672	19,697.8	83.4967	19,697.8	83.2771	19,697.8	82.3945	19,697.8	82.1284	19,697.8	81.1392	19,697.8	81.0416	19,697.8	77.7047	19,697.8	78.7292	19,697.8	74.6532	19,697.8	75.6281	19,697.8	69.6444	19,697.8	70.8453	19,697.8	65.5837	19,697.8	66.7088	19,697.8	60.6444	19,697.8	63.0404	19,697.8	58.4552	19,697.8	58.6429	19,697.8	53.5853	19,697.8	55.169	19,697.8	49.0714	19,697.8	52.4478	19,697.8	51.4835	19,697.8	52.2428	19,697.8	34.3805	19,697.8	46.0542	19,697.8	39.4399	19,697.8	41.4928	19,697.8	40.3074	19,697.8	49.1942	19,697.8	43.257	19,697.8	38.0647	19,697.8	36.0592
19,999.5	83.4816	19,999.5	84.0343	19,999.5	83.2437	19,999.5	83.264	19,999.5	83.1414	19,999.5	82.2601	19,999.5	81.7612	19,999.5	80.536	19,999.5	81.1028	19,999.5	77.1742	19,999.5	78.0768	19,999.5	73.0562	19,999.5	75.6323	19,999.5	68.8935	19,999.5	72.2432	19,999.5	65.271	19,999.5	65.3963	19,999.5	59.187	19,999.5	63.6342	19,999.5	61.8311	19,999.5	61.1742	19,999.5	58.8132	19,999.5	53.7063	19,999.5	49.3098	19,999.5	49.2668	19,999.5	56.1395	19,999.5	54.5422	19,999.5	50.9596	19,999.5	53.5312	19,999.5	49.284	19,999.5	49.4935	19,999.5	59.2417	19,999.5	54.5009	19,999.5	53.2276	19,999.5	57.3651	19,999.5	47.5138
