"SPL Vertical"
"On-Axis"		"10°"		"-10°"		"20°"		"-20°"		"30°"		"-30°"		"40°"		"-40°"		"50°"		"-50°"		"60°"		"-60°"		"70°"		"-70°"		"80°"		"-80°"		"90°"		"-90°"		"100°"		"-100°"		"110°"		"-110°"		"120°"		"-120°"		"130°"		"-130°"		"140°"		"-140°"		"150°"		"-150°"		"160°"		"-160°"		"170°"		"-170°"		"180°"
"Frequency / Hz"	"Sound Pressure Level / dB (re 20 µPa/V)  [2.83  V @ 1. m]"	"Frequency / Hz"	"Sound Pressure Level / dB (re 20 µPa/V)  [2.83  V @ 1. m]"	"Frequency / Hz"	"Sound Pressure Level / dB (re 20 µPa/V)  [2.83  V @ 1. m]"	"Frequency / Hz"	"Sound Pressure Level / dB (re 20 µPa/V)  [2.83  V @ 1. m]"	"Frequency / Hz"	"Sound Pressure Level / dB (re 20 µPa/V)  [2.83  V @ 1. m]"	"Frequency / Hz"	"Sound Pressure Level / dB (re 20 µPa/V)  [2.83  V @ 1. m]"	"Frequency / Hz"	"Sound Pressure Level / dB (re 20 µPa/V)  [2.83  V @ 1. m]"	"Frequency / Hz"	"Sound Pressure Level / dB (re 20 µPa/V)  [2.83  V @ 1. m]"	"Frequency / Hz"	"Sound Pressure Level / dB (re 20 µPa/V)  [2.83  V @ 1. m]"	"Frequency / Hz"	"Sound Pressure Level / dB (re 20 µPa/V)  [2.83  V @ 1. m]"	"Frequency / Hz"	"Sound Pressure Level / dB (re 20 µPa/V)  [2.83  V @ 1. m]"	"Frequency / Hz"	"Sound Pressure Level / dB (re 20 µPa/V)  [2.83  V @ 1. m]"	"Frequency / Hz"	"Sound Pressure Level / dB (re 20 µPa/V)  [2.83  V @ 1. m]"	"Frequency / Hz"	"Sound Pressure Level / dB (re 20 µPa/V)  [2.83  V @ 1. m]"	"Frequency / Hz"	"Sound Pressure Level / dB (re 20 µPa/V)  [2.83  V @ 1. m]"	"Frequency / Hz"	"Sound Pressure Level / dB (re 20 µPa/V)  [2.83  V @ 1. m]"	"Frequency / Hz"	"Sound Pressure Level / dB (re 20 µPa/V)  [2.83  V @ 1. m]"	"Frequency / Hz"	"Sound Pressure Level / dB (re 20 µPa/V)  [2.83  V @ 1. m]"	"Frequency / Hz"	"Sound Pressure Level / dB (re 20 µPa/V)  [2.83  V @ 1. m]"	"Frequency / Hz"	"Sound Pressure Level / dB (re 20 µPa/V)  [2.83  V @ 1. m]"	"Frequency / Hz"	"Sound Pressure Level / dB (re 20 µPa/V)  [2.83  V @ 1. m]"	"Frequency / Hz"	"Sound Pressure Level / dB (re 20 µPa/V)  [2.83  V @ 1. m]"	"Frequency / Hz"	"Sound Pressure Level / dB (re 20 µPa/V)  [2.83  V @ 1. m]"	"Frequency / Hz"	"Sound Pressure Level / dB (re 20 µPa/V)  [2.83  V @ 1. m]"	"Frequency / Hz"	"Sound Pressure Level / dB (re 20 µPa/V)  [2.83  V @ 1. m]"	"Frequency / Hz"	"Sound Pressure Level / dB (re 20 µPa/V)  [2.83  V @ 1. m]"	"Frequency / Hz"	"Sound Pressure Level / dB (re 20 µPa/V)  [2.83  V @ 1. m]"	"Frequency / Hz"	"Sound Pressure Level / dB (re 20 µPa/V)  [2.83  V @ 1. m]"	"Frequency / Hz"	"Sound Pressure Level / dB (re 20 µPa/V)  [2.83  V @ 1. m]"	"Frequency / Hz"	"Sound Pressure Level / dB (re 20 µPa/V)  [2.83  V @ 1. m]"	"Frequency / Hz"	"Sound Pressure Level / dB (re 20 µPa/V)  [2.83  V @ 1. m]"	"Frequency / Hz"	"Sound Pressure Level / dB (re 20 µPa/V)  [2.83  V @ 1. m]"	"Frequency / Hz"	"Sound Pressure Level / dB (re 20 µPa/V)  [2.83  V @ 1. m]"	"Frequency / Hz"	"Sound Pressure Level / dB (re 20 µPa/V)  [2.83  V @ 1. m]"	"Frequency / Hz"	"Sound Pressure Level / dB (re 20 µPa/V)  [2.83  V @ 1. m]"	"Frequency / Hz"	"Sound Pressure Level / dB (re 20 µPa/V)  [2.83  V @ 1. m]"
20.5078	60.5253	20.5078	60.6891	20.5078	60.2093	20.5078	60.7099	20.5078	59.7234	20.5078	60.5884	20.5078	59.0426	20.5078	60.318	20.5078	58.1457	20.5078	59.885	20.5078	57.0707	20.5078	59.2743	20.5078	56.1099	20.5078	58.489	20.5078	56.1035	20.5078	57.6087	20.5078	57.716	20.5078	56.9147	20.5078	60.2075	20.5078	56.9599	20.5078	62.6393	20.5078	58.1094	20.5078	64.6551	20.5078	59.9891	20.5078	66.195	20.5078	61.9967	20.5078	67.29	20.5078	63.8025	20.5078	67.9967	20.5078	65.2984	20.5078	68.3746	20.5078	66.4731	20.5078	68.4755	20.5078	67.3502	20.5078	68.3338	20.5078	67.9619
21.9727	57.2183	21.9727	57.0169	21.9727	57.3082	21.9727	56.66	21.9727	57.3707	21.9727	56.1417	21.9727	57.5484	21.9727	55.5321	21.9727	58.0434	21.9727	55.0832	21.9727	59.042	21.9727	55.3058	21.9727	60.572	21.9727	56.5992	21.9727	62.4647	21.9727	58.6914	21.9727	64.4797	21.9727	61.0171	21.9727	66.4205	21.9727	63.2367	21.9727	68.1603	21.9727	65.2274	21.9727	69.6289	21.9727	66.9601	21.9727	70.7961	21.9727	68.4359	21.9727	71.6617	21.9727	69.6649	21.9727	72.2464	21.9727	70.6605	21.9727	72.583	21.9727	71.4387	21.9727	72.707	21.9727	72.0183	21.9727	72.6466	21.9727	72.417
23.4375	65.8807	23.4375	65.9279	23.4375	65.8098	23.4375	65.9483	23.4375	65.7282	23.4375	65.9488	23.4375	65.6633	23.4375	65.9482	23.4375	65.663	23.4375	65.9819	23.4375	65.8016	23.4375	66.1051	23.4375	66.1718	23.4375	66.3868	23.4375	66.8489	23.4375	66.8866	23.4375	67.8355	23.4375	67.6198	23.4375	69.0388	23.4375	68.5403	23.4375	70.3103	23.4375	69.5592	23.4375	71.5085	23.4375	70.5823	23.4375	72.5348	23.4375	71.536	23.4375	73.3396	23.4375	72.3742	23.4375	73.9126	23.4375	73.0736	23.4375	74.2693	23.4375	73.6272	23.4375	74.4375	23.4375	74.037	23.4375	74.4445	23.4375	74.3087
24.9023	67.3004	24.9023	67.3129	24.9023	67.2717	24.9023	67.3042	24.9023	67.2428	24.9023	67.2777	24.9023	67.2437	24.9023	67.2471	24.9023	67.3242	24.9023	67.2388	24.9023	67.5555	24.9023	67.2955	24.9023	68.0181	24.9023	67.4753	24.9023	68.7668	24.9023	67.8394	24.9023	69.7869	24.9023	68.426	24.9023	70.9836	24.9023	69.226	24.9023	72.22	24.9023	70.1814	24.9023	73.3681	24.9023	71.2093	24.9023	74.3381	24.9023	72.2286	24.9023	75.0835	24.9023	73.1754	24.9023	75.5932	24.9023	74.0069	24.9023	75.88	24.9023	74.6994	24.9023	75.9681	24.9023	75.2434	24.9023	75.8818	24.9023	75.6378
26.3672	70.7826	26.3672	70.7957	26.3672	70.7641	26.3672	70.7972	26.3672	70.7529	26.3672	70.7867	26.3672	70.7709	26.3672	70.7701	26.3672	70.8516	26.3672	70.7617	26.3672	71.0429	26.3672	70.787	26.3672	71.4022	26.3672	70.8853	26.3672	71.9799	26.3672	71.1067	26.3672	72.787	26.3672	71.4985	26.3672	73.7715	26.3672	72.0838	26.3672	74.8285	26.3672	72.844	26.3672	75.8404	26.3672	73.7205	26.3672	76.7132	26.3672	74.6359	26.3672	77.3923	26.3672	75.5162	26.3672	77.8596	26.3672	76.3057	26.3672	78.1225	26.3672	76.9706	26.3672	78.2005	26.3672	77.4957	26.3672	78.114	26.3672	77.8772
27.832	74.3357	27.832	74.2731	27.832	74.4162	27.832	74.2238	27.832	74.5248	27.832	74.1887	27.832	74.6762	27.832	74.1757	27.832	74.8897	27.832	74.2012	27.832	75.188	27.832	74.2921	27.832	75.5948	27.832	74.4841	27.832	76.1294	27.832	74.8146	27.832	76.7976	27.832	75.308	27.832	77.58	27.832	75.9603	27.832	78.4257	27.832	76.7345	27.832	79.2611	27.832	77.5706	27.832	80.0105	27.832	78.4035	27.832	80.6164	27.832	79.1781	27.832	81.0497	27.832	79.8565	27.832	81.3069	27.832	80.4177	27.832	81.4007	27.832	80.854	27.832	81.3488	27.832	81.1646
29.2969	77.6367	29.2969	77.6172	29.2969	77.6827	29.2969	77.6219	29.2969	77.7617	29.2969	77.6522	29.2969	77.8839	29.2969	77.7142	29.2969	78.0631	29.2969	77.8185	29.2969	78.3157	29.2969	77.9799	29.2969	78.6596	29.2969	78.2158	29.2969	79.1107	29.2969	78.5427	29.2969	79.6762	29.2969	78.9701	29.2969	80.3442	29.2969	79.4941	29.2969	81.077	29.2969	80.0947	29.2969	81.8136	29.2969	80.7381	29.2969	82.4865	29.2969	81.3844	29.2969	83.0407	29.2969	81.9952	29.2969	83.4449	29.2969	82.5399	29.2969	83.6923	29.2969	82.9979	29.2969	83.7927	29.2969	83.3579	29.2969	83.7621	29.2969	83.6142
30.7617	80.4473	30.7617	80.4316	30.7617	80.4913	30.7617	80.4417	30.7617	80.5682	30.7617	80.4779	30.7617	80.6858	30.7617	80.5436	30.7617	80.8543	30.7617	80.6449	30.7617	81.0865	30.7617	80.7909	30.7617	81.3974	30.7617	80.9934	30.7617	81.8015	30.7617	81.2651	30.7617	82.307	30.7617	81.616	30.7617	82.9066	30.7617	82.0491	30.7617	83.5691	30.7617	82.5556	30.7617	84.2407	30.7617	83.1141	30.7617	84.8587	30.7617	83.6931	30.7617	85.3693	30.7617	84.2574	30.7617	85.7403	30.7617	84.7745	30.7617	85.9626	30.7617	85.22	30.7617	86.0438	30.7617	85.5782	30.7617	85.9984	30.7617	85.8401
32.2266	82.8388	32.2266	82.81	32.2266	82.8972	32.2266	82.8091	32.2266	82.9893	32.2266	82.8359	32.2266	83.1207	32.2266	82.8924	32.2266	83.2987	32.2266	82.9831	32.2266	83.5326	32.2266	83.1149	32.2266	83.8326	32.2266	83.2974	32.2266	84.2082	32.2266	83.5413	32.2266	84.6644	32.2266	83.8563	32.2266	85.1948	32.2266	84.2463	32.2266	85.7754	32.2266	84.7054	32.2266	86.3634	32.2266	85.2157	32.2266	86.907	32.2266	85.7494	32.2266	87.3594	32.2266	86.2738	32.2266	87.6903	32.2266	86.7577	32.2266	87.8892	32.2266	87.177	32.2266	87.9603	32.2266	87.5155	32.2266	87.9148	32.2266	87.7638
33.6914	84.1969	33.6914	84.1639	33.6914	84.2603	33.6914	84.1599	33.6914	84.3566	33.6914	84.1851	33.6914	84.4894	33.6914	84.2409	33.6914	84.6636	33.6914	84.3306	33.6914	84.885	33.6914	84.4593	33.6914	85.1602	33.6914	84.6338	33.6914	85.4961	33.6914	84.8621	33.6914	85.8966	33.6914	85.1511	33.6914	86.3582	33.6914	85.5037	33.6914	86.8635	33.6914	85.915	33.6914	87.3792	33.6914	86.3708	33.6914	87.8615	33.6914	86.8477	33.6914	88.2682	33.6914	87.3175	33.6914	88.5702	33.6914	87.7526	33.6914	88.7555	33.6914	88.1302	33.6914	88.8258	33.6914	88.4349	33.6914	88.7898	33.6914	88.657
35.1562	84.4533	35.1562	84.42	35.1562	84.5173	35.1562	84.4167	35.1562	84.6137	35.1562	84.4433	35.1562	84.7452	35.1562	84.501	35.1562	84.915	35.1562	84.592	35.1562	85.1271	35.1562	84.7197	35.1562	85.386	35.1562	84.889	35.1562	85.6961	35.1562	85.1052	35.1562	86.0597	35.1562	85.3731	35.1562	86.4735	35.1562	85.6945	35.1562	86.9235	35.1562	86.0655	35.1562	87.3827	35.1562	86.4747	35.1562	87.8142	35.1562	86.9031	35.1562	88.181	35.1562	87.3265	35.1562	88.4561	35.1562	87.7203	35.1562	88.6269	35.1562	88.0635	35.1562	88.6937	35.1562	88.3411	35.1562	88.6632	35.1562	88.5433
36.6211	84.2284	36.6211	84.2017	36.6211	84.2851	36.6211	84.2045	36.6211	84.373	36.6211	84.2367	36.6211	84.494	36.6211	84.2988	36.6211	84.6501	36.6211	84.3921	36.6211	84.8441	36.6211	84.5187	36.6211	85.079	36.6211	84.6815	36.6211	85.3579	36.6211	84.8842	36.6211	85.6829	36.6211	85.13	36.6211	86.0525	36.6211	85.4204	36.6211	86.4565	36.6211	85.7526	36.6211	86.8727	36.6211	86.1179	36.6211	87.2688	36.6211	86.5007	36.6211	87.6102	36.6211	86.8803	36.6211	87.8703	36.6211	87.2348	36.6211	88.0354	36.6211	87.5448	36.6211	88.1043	36.6211	87.7955	36.6211	88.0823	36.6211	87.9771
38.0859	83.946	38.0859	83.9149	38.0859	84.0065	38.0859	83.9128	38.0859	84.097	38.0859	83.9398	38.0859	84.2181	38.0859	83.9963	38.0859	84.3709	38.0859	84.0828	38.0859	84.5562	38.0859	84.2007	38.0859	84.7755	38.0859	84.352	38.0859	85.0302	38.0859	84.539	38.0859	85.3215	38.0859	84.7641	38.0859	85.6483	38.0859	85.0281	38.0859	86.003	38.0859	85.3286	38.0859	86.3678	38.0859	85.658	38.0859	86.716	38.0859	86.0028	38.0859	87.0177	38.0859	86.3453	38.0859	87.2489	38.0859	86.666	38.0859	87.3964	38.0859	86.9473	38.0859	87.4578	38.0859	87.1755	38.0859	87.4373	38.0859	87.3411
39.5508	83.6794	39.5508	83.6571	39.5508	83.7305	39.5508	83.6636	39.5508	83.8106	39.5508	83.699	39.5508	83.9199	39.5508	83.7636	39.5508	84.0589	39.5508	83.8578	39.5508	84.228	39.5508	83.982	39.5508	84.428	39.5508	84.1368	39.5508	84.6594	39.5508	84.3227	39.5508	84.923	39.5508	84.5398	39.5508	85.2172	39.5508	84.7872	39.5508	85.536	39.5508	85.0613	39.5508	85.8649	39.5508	85.3554	39.5508	86.1814	39.5508	85.6586	39.5508	86.4596	39.5508	85.9566	39.5508	86.6774	39.5508	86.2339	39.5508	86.8219	39.5508	86.4757	39.5508	86.8895	39.5508	86.67	39.5508	86.8832	39.5508	86.8081
41.0156	83.5718	41.0156	83.5499	41.0156	83.6225	41.0156	83.5568	41.0156	83.7024	41.0156	83.592	41.0156	83.8114	41.0156	83.6553	41.0156	83.9496	41.0156	83.746	41.0156	84.1167	41.0156	83.8633	41.0156	84.3114	41.0156	84.0065	41.0156	84.5319	41.0156	84.1746	41.0156	84.7754	41.0156	84.3664	41.0156	85.0388	41.0156	84.5806	41.0156	85.3168	41.0156	84.815	41.0156	85.5997	41.0156	85.0655	41.0156	85.8708	41.0156	85.3252	41.0156	86.1089	41.0156	85.5842	41.0156	86.2938	41.0156	85.83	41.0156	86.4128	41.0156	86.0495	41.0156	86.4621	41.0156	86.231	41.0156	86.4443	41.0156	86.3651
42.4805	83.3488	42.4805	83.3336	42.4805	83.3906	42.4805	83.3444	42.4805	83.4595	42.4805	83.3808	42.4805	83.5558	42.4805	83.4421	42.4805	83.6799	42.4805	83.5278	42.4805	83.8315	42.4805	83.6374	42.4805	84.0095	42.4805	83.7704	42.4805	84.2119	42.4805	83.9268	42.4805	84.4361	42.4805	84.1062	42.4805	84.6794	42.4805	84.3079	42.4805	84.9379	42.4805	84.5299	42.4805	85.2038	42.4805	84.7683	42.4805	85.4625	42.4805	85.0159	42.4805	85.6943	42.4805	85.2625	42.4805	85.8794	42.4805	85.4955	42.4805	86.004	42.4805	85.7018	42.4805	86.0628	42.4805	85.8699	42.4805	86.0569	42.4805	85.9907
43.9453	83.2867	43.9453	83.2663	43.9453	83.3327	43.9453	83.2714	43.9453	83.4046	43.9453	83.3015	43.9453	83.5025	43.9453	83.3564	43.9453	83.6265	43.9453	83.4357	43.9453	83.7759	43.9453	83.5386	43.9453	83.9492	43.9453	83.6646	43.9453	84.1435	43.9453	83.8125	43.9453	84.355	43.9453	83.9812	43.9453	84.58	43.9453	84.169	43.9453	84.8142	43.9453	84.3737	43.9453	85.051	43.9453	84.5917	43.9453	85.2788	43.9453	84.8171	43.9453	85.4814	43.9453	85.0417	43.9453	85.642	43.9453	85.2551	43.9453	85.7485	43.9453	85.4458	43.9453	85.7958	43.9453	85.6031	43.9453	85.7844	43.9453	85.7183
45.4102	83.3357	45.4102	83.3107	45.4102	83.3846	45.4102	83.3098	45.4102	83.4574	45.4102	83.3331	45.4102	83.5536	45.4102	83.3805	45.4102	83.673	45.4102	83.4516	45.4102	83.8143	45.4102	83.5458	45.4102	83.9754	45.4102	83.6621	45.4102	84.1531	45.4102	83.7993	45.4102	84.3435	45.4102	83.9557	45.4102	84.5432	45.4102	84.1294	45.4102	84.7491	45.4102	84.3183	45.4102	84.9566	45.4102	84.5188	45.4102	85.1571	45.4102	84.7261	45.4102	85.3371	45.4102	84.9326	45.4102	85.4816	45.4102	85.1288	45.4102	85.5787	45.4102	85.304	45.4102	85.6228	45.4102	85.4485	45.4102	85.6135	45.4102	85.5538
46.875	83.4563	46.875	83.4333	46.875	83.5014	46.875	83.4327	46.875	83.5685	46.875	83.4546	46.875	83.6573	46.875	83.499	46.875	83.7672	46.875	83.5656	46.875	83.897	46.875	83.6538	46.875	84.0444	46.875	83.7623	46.875	84.2062	46.875	83.8897	46.875	84.3782	46.875	84.0341	46.875	84.557	46.875	84.1935	46.875	84.74	46.875	84.3657	46.875	84.924	46.875	84.5476	46.875	85.1027	46.875	84.7348	46.875	85.2649	46.875	84.921	46.875	85.3973	46.875	85.0975	46.875	85.4887	46.875	85.255	46.875	85.5328	46.875	85.3842	46.875	85.5283	46.875	85.4773
48.3398	83.604	48.3398	83.5856	48.3398	83.6428	48.3398	83.5881	48.3398	83.7019	48.3398	83.6115	48.3398	83.7807	48.3398	83.656	48.3398	83.8788	48.3398	83.7213	48.3398	83.9949	48.3398	83.8066	48.3398	84.1267	48.3398	83.9107	48.3398	84.271	48.3398	84.0314	48.3398	84.424	48.3398	84.1666	48.3398	84.5826	48.3398	84.3137	48.3398	84.7447	48.3398	84.4699	48.3398	84.9083	48.3398	84.6323	48.3398	85.0684	48.3398	84.7972	48.3398	85.2158	48.3398	84.9593	48.3398	85.3385	48.3398	85.112	48.3398	85.426	48.3398	85.2473	48.3398	85.4719	48.3398	85.3573	48.3398	85.4743	48.3398	85.4348
51.2695	83.9239	51.2695	83.9146	51.2695	83.9515	51.2695	83.9239	51.2695	83.997	51.2695	83.9526	51.2695	84.0602	51.2695	84.0009	51.2695	84.1404	51.2695	84.0689	51.2695	84.2369	51.2695	84.1561	51.2695	84.3475	51.2695	84.2608	51.2695	84.4688	51.2695	84.3804	51.2695	84.5968	51.2695	84.5109	51.2695	84.7276	51.2695	84.6479	51.2695	84.8593	51.2695	84.7869	51.2695	84.9909	51.2695	84.9236	51.2695	85.121	51.2695	85.0547	51.2695	85.2444	51.2695	85.1771	51.2695	85.3528	51.2695	85.2872	51.2695	85.4373	51.2695	85.3807	51.2695	85.4911	51.2695	85.4524	51.2695	85.5111	51.2695	85.4973
52.7344	84.089	52.7344	84.0786	52.7344	84.116	52.7344	84.0856	52.7344	84.1588	52.7344	84.1111	52.7344	84.217	52.7344	84.1561	52.7344	84.2901	52.7344	84.2212	52.7344	84.3769	52.7344	84.3063	52.7344	84.4753	52.7344	84.4097	52.7344	84.5822	52.7344	84.5284	52.7344	84.6937	52.7344	84.6576	52.7344	84.8066	52.7344	84.7913	52.7344	84.9198	52.7344	84.9237	52.7344	85.0341	52.7344	85.0499	52.7344	85.1496	52.7344	85.1668	52.7344	85.2628	52.7344	85.2724	52.7344	85.366	52.7344	85.365	52.7344	85.4501	52.7344	85.4417	52.7344	85.5076	52.7344	85.4986	52.7344	85.5348	52.7344	85.5309
54.1992	84.3474	54.1992	84.3382	54.1992	84.3693	54.1992	84.3426	54.1992	84.4032	54.1992	84.3623	54.1992	84.4489	54.1992	84.3989	54.1992	84.5063	54.1992	84.4538	54.1992	84.5751	54.1992	84.5278	54.1992	84.6539	54.1992	84.6201	54.1992	84.7403	54.1992	84.7279	54.1992	84.8317	54.1992	84.8465	54.1992	84.9259	54.1992	84.9695	54.1992	85.0229	54.1992	85.0904	54.1992	85.1243	54.1992	85.2039	54.1992	85.2305	54.1992	85.3068	54.1992	85.3377	54.1992	85.3981	54.1992	85.4379	54.1992	85.4768	54.1992	85.5213	54.1992	85.5412	54.1992	85.5803	54.1992	85.5878	54.1992	85.6108	54.1992	85.6125
55.6641	84.7576	55.6641	84.7425	55.6641	84.7805	55.6641	84.7364	55.6641	84.8107	55.6641	84.741	55.6641	84.8486	55.6641	84.7583	55.6641	84.8946	55.6641	84.7902	55.6641	84.9491	55.6641	84.8378	55.6641	85.0117	55.6641	84.9012	55.6641	85.0811	55.6641	84.9785	55.6641	85.1552	55.6641	85.0665	55.6641	85.2326	55.6641	85.161	55.6641	85.3135	55.6641	85.2578	55.6641	85.3992	55.6641	85.354	55.6641	85.49	55.6641	85.4476	55.6641	85.5819	55.6641	85.5372	55.6641	85.6673	55.6641	85.6206	55.6641	85.7367	55.6641	85.694	55.6641	85.7823	55.6641	85.7521	55.6641	85.8	55.6641	85.789
58.5938	85.4458	58.5938	85.4242	58.5938	85.4723	58.5938	85.4087	58.5938	85.5035	58.5938	85.4011	58.5938	85.5396	58.5938	85.4035	58.5938	85.5812	58.5938	85.4177	58.5938	85.6288	58.5938	85.4452	58.5938	85.6817	58.5938	85.4859	58.5938	85.7381	58.5938	85.5384	58.5938	85.7947	58.5938	85.5999	58.5938	85.8483	58.5938	85.667	58.5938	85.8973	58.5938	85.7364	58.5938	85.9429	58.5938	85.806	58.5938	85.9879	58.5938	85.8747	58.5938	86.0336	58.5938	85.9415	58.5938	86.0782	58.5938	86.005	58.5938	86.1166	58.5938	86.0621	58.5938	86.1425	58.5938	86.1084	58.5938	86.1508	58.5938	86.1391
60.0586	85.6502	60.0586	85.6256	60.0586	85.6796	60.0586	85.607	60.0586	85.7132	60.0586	85.5964	60.0586	85.7512	60.0586	85.596	60.0586	85.794	60.0586	85.608	60.0586	85.8416	60.0586	85.6339	60.0586	85.893	60.0586	85.6739	60.0586	85.9455	60.0586	85.7266	60.0586	85.9952	60.0586	85.7889	60.0586	86.0382	60.0586	85.8567	60.0586	86.0731	60.0586	85.9261	60.0586	86.1022	60.0586	85.9938	60.0586	86.1304	60.0586	86.058	60.0586	86.162	60.0586	86.1178	60.0586	86.1974	60.0586	86.1718	60.0586	86.2323	60.0586	86.2179	60.0586	86.2602	60.0586	86.2527	60.0586	86.2748	60.0586	86.2724
62.9883	86.0591	62.9883	86.033	62.9883	86.0876	62.9883	86.0109	62.9883	86.118	62.9883	85.9957	62.9883	86.1509	62.9883	85.9909	62.9883	86.1874	62.9883	86.0002	62.9883	86.2285	62.9883	86.0262	62.9883	86.2742	62.9883	86.0699	62.9883	86.3223	62.9883	86.1298	62.9883	86.3689	62.9883	86.2014	62.9883	86.4095	62.9883	86.2787	62.9883	86.4415	62.9883	86.3551	62.9883	86.4665	62.9883	86.4252	62.9883	86.4892	62.9883	86.486	62.9883	86.5149	62.9883	86.5367	62.9883	86.5456	62.9883	86.5777	62.9883	86.5786	62.9883	86.6088	62.9883	86.6084	62.9883	86.6289	62.9883	86.6288	62.9883	86.6359
64.4531	86.3421	64.4531	86.3189	64.4531	86.3651	64.4531	86.297	64.4531	86.3877	64.4531	86.2794	64.4531	86.4111	64.4531	86.2698	64.4531	86.4372	64.4531	86.2724	64.4531	86.4678	64.4531	86.2905	64.4531	86.5034	64.4531	86.3256	64.4531	86.5426	64.4531	86.3767	64.4531	86.5812	64.4531	86.4397	64.4531	86.6143	64.4531	86.5085	64.4531	86.6388	64.4531	86.5764	64.4531	86.6555	64.4531	86.6378	64.4531	86.6693	64.4531	86.6896	64.4531	86.6863	64.4531	86.731	64.4531	86.7098	64.4531	86.7628	64.4531	86.7383	64.4531	86.7854	64.4531	86.7664	64.4531	86.798	64.4531	86.7882	64.4531	86.7992
67.3828	86.9318	67.3828	86.9121	67.3828	86.9455	67.3828	86.8881	67.3828	86.9536	67.3828	86.8628	67.3828	86.9581	67.3828	86.8407	67.3828	86.9619	67.3828	86.827	67.3828	86.9683	67.3828	86.826	67.3828	86.9794	67.3828	86.8406	67.3828	86.9949	67.3828	86.8708	67.3828	87.0115	67.3828	86.9135	67.3828	87.0242	67.3828	86.9627	67.3828	87.029	67.3828	87.0114	67.3828	87.0262	67.3828	87.0536	67.3828	87.0208	67.3828	87.0858	67.3828	87.0199	67.3828	87.1075	67.3828	87.0287	67.3828	87.12	67.3828	87.0474	67.3828	87.125	67.3828	87.0715	67.3828	87.1226	67.3828	87.0948	67.3828	87.1126
68.8477	87.1963	68.8477	87.1734	68.8477	87.2111	68.8477	87.144	68.8477	87.2184	68.8477	87.1115	68.8477	87.2204	68.8477	87.0807	68.8477	87.2204	68.8477	87.0571	68.8477	87.2222	68.8477	87.0456	68.8477	87.2281	68.8477	87.0498	68.8477	87.2379	68.8477	87.0699	68.8477	87.2481	68.8477	87.1032	68.8477	87.2531	68.8477	87.1437	68.8477	87.2481	68.8477	87.1844	68.8477	87.2331	68.8477	87.2191	68.8477	87.2133	68.8477	87.2443	68.8477	87.1973	68.8477	87.2596	68.8477	87.192	68.8477	87.2664	68.8477	87.1991	68.8477	87.2666	68.8477	87.2149	68.8477	87.2611	68.8477	87.2336	68.8477	87.2499
71.7773	87.6556	71.7773	87.6331	71.7773	87.6648	71.7773	87.5985	71.7773	87.6618	71.7773	87.5555	71.7773	87.6497	71.7773	87.5099	71.7773	87.6336	71.7773	87.4681	71.7773	87.6186	71.7773	87.4366	71.7773	87.6083	71.7773	87.4201	71.7773	87.6032	71.7773	87.4202	71.7773	87.5993	71.7773	87.4346	71.7773	87.5894	71.7773	87.4575	71.7773	87.5672	71.7773	87.4815	71.7773	87.5313	71.7773	87.5	71.7773	87.4875	71.7773	87.5091	71.7773	87.4466	71.7773	87.5083	71.7773	87.4188	71.7773	87.4997	71.7773	87.4087	71.7773	87.4858	71.7773	87.4144	71.7773	87.4686	71.7773	87.43	71.7773	87.4493
74.707	88.0857	74.707	88.0683	74.707	88.0854	74.707	88.0345	74.707	88.069	74.707	87.9885	74.707	88.0408	74.707	87.9363	74.707	88.007	74.707	87.8857	74.707	87.9742	74.707	87.844	74.707	87.9476	74.707	87.8168	74.707	87.9286	74.707	87.8065	74.707	87.9133	74.707	87.811	74.707	87.8941	74.707	87.8245	74.707	87.8633	74.707	87.8393	74.707	87.8187	74.707	87.8483	74.707	87.7661	74.707	87.8474	74.707	87.7173	74.707	87.8358	74.707	87.684	74.707	87.8155	74.707	87.672	74.707	87.7895	74.707	87.68	74.707	87.7603	74.707	87.7016	74.707	87.73
77.6367	88.4148	77.6367	88.3962	77.6367	88.4109	77.6367	88.3567	77.6367	88.3862	77.6367	88.3012	77.6367	88.3458	77.6367	88.2371	77.6367	88.297	77.6367	88.1736	77.6367	88.2482	77.6367	88.1196	77.6367	88.2065	77.6367	88.0822	77.6367	88.1748	77.6367	88.0648	77.6367	88.1504	77.6367	88.0657	77.6367	88.1256	77.6367	88.0788	77.6367	88.0919	77.6367	88.0955	77.6367	88.0457	77.6367	88.1075	77.6367	87.9918	77.6367	88.1092	77.6367	87.9422	77.6367	88.0988	77.6367	87.9092	77.6367	88.0775	77.6367	87.8995	77.6367	88.048	77.6367	87.912	77.6367	88.0132	77.6367	87.9401	77.6367	87.9759
79.1016	88.5474	79.1016	88.5294	79.1016	88.5397	79.1016	88.4877	79.1016	88.5085	79.1016	88.4276	79.1016	88.4589	79.1016	88.3573	79.1016	88.3992	79.1016	88.2868	79.1016	88.3388	79.1016	88.226	79.1016	88.2858	79.1016	88.1831	79.1016	88.2444	79.1016	88.1618	79.1016	88.2125	79.1016	88.1608	79.1016	88.1827	79.1016	88.1737	79.1016	88.1461	79.1016	88.1912	79.1016	88.0984	79.1016	88.2042	79.1016	88.0441	79.1016	88.2063	79.1016	87.9949	79.1016	88.1948	79.1016	87.9634	79.1016	88.1707	79.1016	87.9568	79.1016	88.1365	79.1016	87.9741	79.1016	88.0955	79.1016	88.0083	79.1016	88.0511
82.0312	88.7965	82.0312	88.7793	82.0312	88.7831	82.0312	88.7338	82.0312	88.7409	82.0312	88.6662	82.0312	88.6757	82.0312	88.5861	82.0312	88.5964	82.0312	88.5047	82.0312	88.5137	82.0312	88.4339	82.0312	88.4374	82.0312	88.3829	82.0312	88.3734	82.0312	88.3565	82.0312	88.3213	82.0312	88.3533	82.0312	88.2747	82.0312	88.3663	82.0312	88.2251	82.0312	88.3845	82.0312	88.1684	82.0312	88.3972	82.0312	88.1089	82.0312	88.3962	82.0312	88.0586	82.0312	88.3779	82.0312	88.0303	82.0312	88.3427	82.0312	88.0314	82.0312	88.2936	82.0312	88.0608	82.0312	88.2349	82.0312	88.1109	82.0312	88.1718
84.9609	89.0005	84.9609	88.9782	84.9609	88.9874	84.9609	88.923	84.9609	88.9413	84.9609	88.8415	84.9609	88.8686	84.9609	88.7442	84.9609	88.7793	84.9609	88.6439	84.9609	88.685	84.9609	88.554	84.9609	88.5968	84.9609	88.4858	84.9609	88.5212	84.9609	88.4456	84.9609	88.4585	84.9609	88.4328	84.9609	88.4024	84.9609	88.4399	84.9609	88.3444	84.9609	88.4553	84.9609	88.2801	84.9609	88.4665	84.9609	88.2133	84.9609	88.4644	84.9609	88.1556	84.9609	88.4447	84.9609	88.1197	84.9609	88.4079	84.9609	88.1132	84.9609	88.3575	84.9609	88.1357	84.9609	88.2987	84.9609	88.1801	84.9609	88.2373
87.8906	89.0487	87.8906	89.0233	87.8906	89.0338	87.8906	88.9598	87.8906	88.9819	87.8906	88.8658	87.8906	88.9011	87.8906	88.7529	87.8906	88.8039	87.8906	88.636	87.8906	88.7048	87.8906	88.5308	87.8906	88.6174	87.8906	88.4506	87.8906	88.5501	87.8906	88.4033	87.8906	88.5028	87.8906	88.3889	87.8906	88.4666	87.8906	88.3993	87.8906	88.4288	87.8906	88.4217	87.8906	88.3803	87.8906	88.442	87.8906	88.3215	87.8906	88.4497	87.8906	88.2624	87.8906	88.4394	87.8906	88.2171	87.8906	88.4115	87.8906	88.1958	87.8906	88.3702	87.8906	88.2012	87.8906	88.3214	87.8906	88.2291	87.8906	88.2719
90.8203	89.136	90.8203	89.114	90.8203	89.1116	90.8203	89.0478	90.8203	89.0445	90.8203	88.9451	90.8203	88.944	90.8203	88.8185	90.8203	88.8244	90.8203	88.684	90.8203	88.7026	90.8203	88.5585	90.8203	88.5947	90.8203	88.4572	90.8203	88.5114	90.8203	88.3898	90.8203	88.4532	90.8203	88.358	90.8203	88.4105	90.8203	88.355	90.8203	88.368	90.8203	88.3681	90.8203	88.314	90.8203	88.3827	90.8203	88.2473	90.8203	88.3867	90.8203	88.1781	90.8203	88.373	90.8203	88.1225	90.8203	88.3403	90.8203	88.0936	90.8203	88.2919	90.8203	88.0962	90.8203	88.2344	90.8203	88.1265	90.8203	88.176
95.2148	89.2003	95.2148	89.1916	95.2148	89.1521	95.2148	89.1278	95.2148	89.0525	95.2148	89.0172	95.2148	88.9137	95.2148	88.8736	95.2148	88.754	95.2148	88.7155	95.2148	88.5956	95.2148	88.5628	95.2148	88.4598	95.2148	88.434	95.2148	88.3611	95.2148	88.3417	95.2148	88.3009	95.2148	88.2893	95.2148	88.267	95.2148	88.2705	95.2148	88.2387	95.2148	88.2719	95.2148	88.1985	95.2148	88.2775	95.2148	88.1405	95.2148	88.274	95.2148	88.0733	95.2148	88.2537	95.2148	88.0135	95.2148	88.2151	95.2148	87.9769	95.2148	88.1617	95.2148	87.9712	95.2148	88.101	95.2148	87.9954	95.2148	88.042
98.1445	89.201	98.1445	89.1913	98.1445	89.1447	98.1445	89.118	98.1445	89.0279	98.1445	88.9906	98.1445	88.8645	98.1445	88.8251	98.1445	88.6754	98.1445	88.6425	98.1445	88.4871	98.1445	88.4657	98.1445	88.3258	98.1445	88.3158	98.1445	88.2104	98.1445	88.2075	98.1445	88.1449	98.1445	88.1451	98.1445	88.1157	98.1445	88.1219	98.1445	88.0983	98.1445	88.1232	98.1445	88.0694	98.1445	88.131	98.1445	88.019	98.1445	88.1303	98.1445	87.9534	98.1445	88.112	98.1445	87.89	98.1445	88.074	98.1445	87.8468	98.1445	88.02	98.1445	87.8345	98.1445	87.9581	98.1445	87.8541	98.1445	87.8989
101.074	89.3249	101.074	89.3115	101.074	89.2598	101.074	89.2233	101.074	89.121	101.074	89.0719	101.074	88.9222	101.074	88.8759	101.074	88.6861	101.074	88.6593	101.074	88.4423	101.074	88.4486	101.074	88.2228	101.074	88.2688	101.074	88.0536	101.074	88.1377	101.074	87.9448	101.074	88.0615	101.074	87.8864	101.074	88.033	101.074	87.8534	101.074	88.0352	101.074	87.8193	101.074	88.0468	101.074	87.7703	101.074	88.0488	101.074	87.7104	101.074	88.0292	101.074	87.6566	101.074	87.9836	101.074	87.6277	101.074	87.9151	101.074	87.6348	101.074	87.8326	101.074	87.6781	101.074	87.7487
105.469	89.6785	105.469	89.6598	105.469	89.6043	105.469	89.5532	105.469	89.4411	105.469	89.3715	105.469	89.202	105.469	89.135	105.469	88.9094	105.469	88.8701	105.469	88.5943	105.469	88.6068	105.469	88.2927	105.469	88.3745	105.469	88.0372	105.469	88.196	105.469	87.8478	105.469	88.0826	105.469	87.7242	105.469	88.0304	105.469	87.6483	105.469	88.023	105.469	87.5964	105.469	88.0368	105.469	87.5526	105.469	88.0485	105.469	87.5162	105.469	88.0404	105.469	87.498	105.469	88.0031	105.469	87.5104	105.469	87.9355	105.469	87.5592	105.469	87.844	105.469	87.64	105.469	87.7403
108.398	89.798	108.398	89.7775	108.398	89.7206	108.398	89.6642	108.398	89.5488	108.398	89.4715	108.398	89.2958	108.398	89.2203	108.398	88.9844	108.398	88.9381	108.398	88.6462	108.398	88.656	108.398	88.3181	108.398	88.405	108.398	88.0347	108.398	88.2097	108.398	87.8186	108.398	88.083	108.398	87.6729	108.398	88.0228	108.398	87.5828	108.398	88.0133	108.398	87.5262	108.398	88.0312	108.398	87.4876	108.398	88.0518	108.398	87.4645	108.398	88.0549	108.398	87.4646	108.398	88.0283	108.398	87.497	108.398	87.9681	108.398	87.5645	108.398	87.8786	108.398	87.6604	108.398	87.7708
112.793	89.746	112.793	89.7255	112.793	89.6619	112.793	89.6061	112.793	89.4771	112.793	89.4025	112.793	89.2058	112.793	89.1376	112.793	88.8728	112.793	88.8411	112.793	88.513	112.793	88.5468	112.793	88.167	112.793	88.2879	112.793	87.8727	112.793	88.0905	112.793	87.6544	112.793	87.9669	112.793	87.5136	112.793	87.9135	112.793	87.4319	112.793	87.912	112.793	87.3827	112.793	87.9361	112.793	87.3474	112.793	87.959	112.793	87.3225	112.793	87.9595	112.793	87.3172	112.793	87.9249	112.793	87.3438	112.793	87.8525	112.793	87.4088	112.793	87.7486	112.793	87.5079	112.793	87.6275
117.188	89.7644	117.188	89.7503	117.188	89.6578	117.188	89.6229	117.188	89.4337	117.188	89.3991	117.188	89.1066	117.188	89.1041	117.188	88.7042	117.188	88.771	117.188	88.2677	117.188	88.4372	117.188	87.8484	117.188	88.1404	117.188	87.4979	117.188	87.9109	117.188	87.2523	117.188	87.7651	117.188	87.1169	117.188	87.701	117.188	87.0661	117.188	87.6997	117.188	87.0597	117.188	87.732	117.188	87.0657	117.188	87.767	117.188	87.0728	117.188	87.7789	117.188	87.0889	117.188	87.752	117.188	87.1297	117.188	87.6817	117.188	87.2057	117.188	87.5742	117.188	87.3154	117.188	87.4451
120.117	89.9672	120.117	89.935	120.117	89.8731	120.117	89.7862	120.117	89.6531	120.117	89.5395	120.117	89.3181	120.117	89.2225	120.117	88.8906	120.117	88.8704	120.117	88.4062	120.117	88.5234	120.117	87.9117	120.117	88.221	120.117	87.4599	120.117	87.9953	120.117	87.0972	120.117	87.8629	120.117	86.8491	120.117	87.8211	120.117	86.7124	120.117	87.8493	120.117	86.6624	120.117	87.9153	120.117	86.6719	120.117	87.9835	120.117	86.7261	120.117	88.0225	120.117	86.8247	120.117	88.0094	120.117	86.9712	120.117	87.9322	120.117	87.1618	120.117	87.7913	120.117	87.3801	120.117	87.5995
124.512	90.0713	124.512	90.0218	124.512	89.9925	124.512	89.8523	124.512	89.7876	124.512	89.581	124.512	89.4697	124.512	89.2362	124.512	89.0638	124.512	88.8552	124.512	88.6065	124.512	88.4812	124.512	88.1437	124.512	88.1583	124.512	87.7239	124.512	87.9227	124.512	87.3881	124.512	87.7942	124.512	87.158	124.512	87.7708	124.512	87.0326	124.512	87.8299	124.512	86.9944	124.512	87.936	124.512	87.0219	124.512	88.0502	124.512	87.0996	124.512	88.1384	124.512	87.219	124.512	88.1763	124.512	87.3738	124.512	88.1512	124.512	87.5541	124.512	88.0624	124.512	87.7435	124.512	87.9204
128.906	89.9366	128.906	89.8823	128.906	89.8549	128.906	89.7007	128.906	89.6402	128.906	89.411	128.906	89.3071	128.906	89.0433	128.906	88.8831	128.906	88.6369	128.906	88.4084	128.906	88.2381	128.906	87.933	128.906	87.8935	128.906	87.5095	128.906	87.6419	128.906	87.1807	128.906	87.5047	128.906	86.9675	128.906	87.4807	128.906	86.865	128.906	87.5473	128.906	86.8507	128.906	87.6681	128.906	86.8988	128.906	87.8025	128.906	86.991	128.906	87.9143	128.906	87.1177	128.906	87.9769	128.906	87.2724	128.906	87.9756	128.906	87.4462	128.906	87.9085	128.906	87.6239	128.906	87.7853
133.301	89.8789	133.301	89.8106	133.301	89.8049	133.301	89.6082	133.301	89.5919	133.301	89.292	133.301	89.2561	133.301	88.894	133.301	88.8269	133.301	88.4569	133.301	88.3465	133.301	88.0308	133.301	87.8669	133.301	87.6671	133.301	87.4417	133.301	87.4079	133.301	87.1141	133.301	87.276	133.301	86.905	133.301	87.2681	133.301	86.8093	133.301	87.3575	133.301	86.8042	133.301	87.503	133.301	86.8625	133.301	87.6605	133.301	86.9632	133.301	87.7922	133.301	87.0933	133.301	87.8712	133.301	87.2448	133.301	87.884	133.301	87.4091	133.301	87.8303	133.301	87.5737	133.301	87.7208
139.16	89.4718	139.16	89.4045	139.16	89.3858	139.16	89.1918	139.16	89.1526	139.16	88.8543	139.16	88.7922	139.16	88.426	139.16	88.3396	139.16	87.9525	139.16	87.8443	139.16	87.4882	139.16	87.3652	139.16	87.0887	139.16	86.9602	139.16	86.8003	139.16	86.6712	139.16	86.6485	139.16	86.5118	139.16	86.6309	139.16	86.4671	139.16	86.7201	139.16	86.5053	139.16	86.8732	139.16	86.5931	139.16	87.0444	139.16	86.7052	139.16	87.1945	139.16	86.8258	139.16	87.2971	139.16	86.9469	139.16	87.3403	139.16	87.0644	139.16	87.3259	139.16	87.1735	139.16	87.2652
143.555	89.2238	143.555	89.1578	143.555	89.1242	143.555	88.9344	143.555	88.8662	143.555	88.5766	143.555	88.4731	143.555	88.1217	143.555	87.9854	143.555	87.6207	143.555	87.4595	143.555	87.1332	143.555	86.9618	143.555	86.7198	143.555	86.5542	143.555	86.4284	143.555	86.2764	143.555	86.2814	143.555	86.1332	143.555	86.2702	143.555	86.0985	143.555	86.3596	143.555	86.1331	143.555	86.5012	143.555	86.2022	143.555	86.647	143.555	86.2832	143.555	86.7599	143.555	86.3648	143.555	86.8184	143.555	86.4444	143.555	86.8186	143.555	86.5246	143.555	86.771	143.555	86.6088	143.555	86.6948
147.949	89.0563	147.949	88.9779	147.949	88.9518	147.949	88.7258	147.949	88.6721	147.949	88.3262	147.949	88.2443	147.949	87.8214	147.949	87.7163	147.949	87.2691	147.949	87.1557	147.949	86.7383	147.949	86.6413	147.949	86.2985	147.949	86.243	147.949	86.0044	147.949	85.9961	147.949	85.8785	147.949	85.8886	147.949	85.9042	147.949	85.8739	147.949	86.0336	147.949	85.8986	147.949	86.2052	147.949	85.9267	147.949	86.3618	147.949	85.9448	147.949	86.4617	147.949	85.9566	147.949	86.4843	147.949	85.975	147.949	86.4321	147.949	86.0163	147.949	86.3269	147.949	86.0928	147.949	86.2029
153.809	89.1385	153.809	89.0451	153.809	89.0174	153.809	88.7498	153.809	88.6859	153.809	88.2807	153.809	88.1676	153.809	87.6824	153.809	87.5111	153.809	87.0159	153.809	86.7943	153.809	86.3581	153.809	86.1211	153.809	85.794	153.809	85.6001	153.809	85.4005	153.809	85.3017	153.809	85.223	153.809	85.2216	153.809	85.2568	153.809	85.2887	153.809	85.4483	153.809	85.4129	153.809	85.7174	153.809	85.5292	153.809	85.984	153.809	85.6131	153.809	86.1866	153.809	85.672	153.809	86.2905	153.809	85.7296	153.809	86.2894	153.809	85.8103	153.809	86.2025	153.809	85.9262	153.809	86.0674
159.668	89.1728	159.668	89.0485	159.668	89.0674	159.668	88.7094	159.668	88.7327	159.668	88.1854	159.668	88.1875	159.668	87.5217	159.668	87.4747	159.668	86.7801	159.668	86.6685	159.668	86.0386	159.668	85.8782	159.668	85.3862	159.668	85.2345	159.668	84.9085	159.668	84.8445	159.668	84.6645	159.668	84.7337	159.668	84.6619	159.668	84.8312	159.668	84.8522	159.668	85.0226	159.668	85.1499	159.668	85.2137	159.668	85.4634	159.668	85.3583	159.668	85.7194	159.668	85.4515	159.668	85.8742	159.668	85.5141	159.668	85.9172	159.668	85.5764	159.668	85.8682	159.668	85.6612	159.668	85.768
165.527	89.405	165.527	89.2601	165.527	89.3184	165.527	88.8998	165.527	88.9983	165.527	88.3542	165.527	88.4593	165.527	87.6674	165.527	87.7371	165.527	86.8981	165.527	86.8946	165.527	86.1188	165.527	86.0267	165.527	85.4114	165.527	85.2549	165.527	84.8583	165.527	84.6955	165.527	84.5237	165.527	84.4033	165.527	84.4318	165.527	84.3373	165.527	84.5525	165.527	84.3931	165.527	84.8082	165.527	84.4728	165.527	85.1007	165.527	84.5288	165.527	85.3404	165.527	84.5649	165.527	85.4658	165.527	84.6158	165.527	85.4534	165.527	84.7195	165.527	85.3186	165.527	84.8917	165.527	85.1098
171.387	89.4918	171.387	89.3015	171.387	89.4568	171.387	88.9027	171.387	89.1937	171.387	88.326	171.387	88.7147	171.387	87.6164	171.387	88.0503	171.387	86.8345	171.387	87.2546	171.387	86.0557	171.387	86.4093	171.387	85.3653	171.387	85.623	171.387	84.8476	171.387	85.0114	171.387	84.5656	171.387	84.6527	171.387	84.5391	171.387	84.5433	171.387	84.7333	171.387	84.605	171.387	85.0695	171.387	84.7428	171.387	85.4512	171.387	84.8969	171.387	85.7896	171.387	85.0536	171.387	86.0195	171.387	85.2274	171.387	86.1076	171.387	85.4335	171.387	86.0544	171.387	85.6659	171.387	85.8904
177.246	89.2417	177.246	89.0762	177.246	89.1879	177.246	88.7048	177.246	88.9155	177.246	88.1551	177.246	88.4417	177.246	87.4685	177.246	87.8031	177.246	86.7012	177.246	87.0588	177.246	85.9237	177.246	86.2919	177.246	85.2185	177.246	85.6021	177.246	84.6716	177.246	85.0847	177.246	84.3548	177.246	84.796	177.246	84.3005	177.246	84.7264	177.246	84.4829	177.246	84.8094	177.246	84.8233	177.246	84.9617	177.246	85.2186	177.246	85.1223	177.246	85.5743	177.246	85.2668	177.246	85.825	177.246	85.4004	177.246	85.9423	177.246	85.539	177.246	85.9336	177.246	85.689	177.246	85.8336
183.105	89.1506	183.105	88.9928	183.105	89.0612	183.105	88.6039	183.105	88.7262	183.105	88.0161	183.105	88.1676	183.105	87.2778	183.105	87.4341	183.105	86.454	183.105	86.6069	183.105	85.6253	183.105	85.8008	183.105	84.8836	183.105	85.1472	183.105	84.3211	183.105	84.7494	183.105	84.0109	183.105	84.631	183.105	83.9821	183.105	84.7282	183.105	84.2047	183.105	84.9372	183.105	84.5956	183.105	85.168	183.105	85.0476	183.105	85.3685	183.105	85.4616	183.105	85.5226	183.105	85.7688	183.105	85.6402	183.105	85.9398	183.105	85.7426	183.105	85.9833	183.105	85.8441	183.105	85.9359
188.965	89.9585	188.965	89.7287	188.965	89.9129	188.965	89.2466	188.965	89.5842	188.965	88.5502	188.965	88.9838	188.965	87.6923	188.965	88.1481	188.965	86.741	188.965	87.1497	188.965	85.78	188.965	86.1113	188.965	84.9067	188.965	85.208	188.965	84.2246	188.965	84.6229	188.965	83.8244	188.965	84.4431	188.965	83.752	188.965	84.5954	188.965	83.9829	188.965	84.9143	188.965	84.424	188.965	85.255	188.965	84.9489	188.965	85.5395	188.965	85.4402	188.965	85.7454	188.965	85.8167	188.965	85.8843	188.965	86.0442	188.965	85.9825	188.965	86.1326	188.965	86.0622	188.965	86.1226
196.289	90.6667	196.289	90.3602	196.289	90.7028	196.289	89.8109	196.289	90.4549	196.289	89.0587	196.289	89.9262	196.289	88.1542	196.289	89.1419	196.289	87.1582	196.289	88.1578	196.289	86.1429	196.289	87.0749	196.289	85.1953	196.289	86.0489	196.289	84.42	196.289	85.2685	196.289	83.9293	196.289	84.8672	196.289	83.8057	196.289	84.8261	196.289	84.0469	196.289	84.9964	196.289	84.5474	196.289	85.2193	196.289	85.1445	196.289	85.4036	196.289	85.6846	196.289	85.5295	196.289	86.0623	196.289	85.6237	196.289	86.2332	196.289	85.7316	196.289	86.213	196.289	85.8845	196.289	86.0674
203.613	90.3238	203.613	89.9914	203.613	90.416	203.613	89.4491	203.613	90.2463	203.613	88.7346	203.613	89.8044	203.613	87.8944	203.613	89.0953	203.613	86.9842	203.613	88.147	203.613	86.0701	203.613	87.0236	203.613	85.2257	203.613	85.8463	203.613	84.5273	203.613	84.8097	203.613	84.047	203.613	84.1361	203.613	83.8457	203.613	83.9258	203.613	83.9544	203.613	84.0625	203.613	84.3438	203.613	84.3385	203.613	84.9085	203.613	84.6181	203.613	85.4981	203.613	84.8745	203.613	85.9725	203.613	85.1427	203.613	86.2412	203.613	85.4563	203.613	86.2751	203.613	85.7998	203.613	86.1034
210.938	90.4856	210.938	90.2654	210.938	90.4571	210.938	89.8126	210.938	90.1735	210.938	89.1527	210.938	89.6393	210.938	88.3233	210.938	88.8739	210.938	87.3768	210.938	87.9179	210.938	86.3863	210.938	86.8444	210.938	85.4487	210.938	85.7717	210.938	84.6822	210.938	84.8675	210.938	84.2042	210.938	84.3097	210.938	84.0857	210.938	84.1861	210.938	84.3092	210.938	84.4233	210.938	84.7737	210.938	84.8489	210.938	85.3425	210.938	85.3089	210.938	85.8904	210.938	85.7211	210.938	86.3275	210.938	86.0623	210.938	86.6062	210.938	86.3373	210.938	86.7187	210.938	86.5501	210.938	86.6877
218.262	90.6816	218.262	90.5239	218.262	90.5654	218.262	90.1035	218.262	90.1805	218.262	89.4481	218.262	89.5483	218.262	88.6014	218.262	88.7077	218.262	87.624	218.262	87.7169	218.262	86.5916	218.262	86.6556	218.262	85.5954	218.262	85.6262	218.262	84.74	218.262	84.7484	218.262	84.1374	218.262	84.1364	218.262	83.8835	218.262	83.8556	218.262	84.0111	218.262	83.8833	218.262	84.4503	218.262	84.1197	218.262	85.0452	218.262	84.4483	218.262	85.6208	218.262	84.7898	218.262	86.0424	218.262	85.1157	218.262	86.2418	218.262	85.4312	218.262	86.2187	218.262	85.7429	218.262	86.0265
225.586	91.0161	225.586	90.7885	225.586	90.9458	225.586	90.2866	225.586	90.5706	225.586	89.5496	225.586	89.9022	225.586	88.6317	225.586	88.9767	225.586	87.6021	225.586	87.8631	225.586	86.5434	225.586	86.6739	225.586	85.5499	225.586	85.5676	225.586	84.7253	225.586	84.7214	225.586	84.1754	225.586	84.2605	225.586	83.9878	225.586	84.19	225.586	84.1921	225.586	84.405	225.586	84.7233	225.586	84.7697	225.586	85.4319	225.586	85.1815	225.586	86.1402	225.586	85.5887	225.586	86.7022	225.586	85.9787	225.586	87.033	225.586	86.354	225.586	87.1135	225.586	86.7029	225.586	86.9801
232.91	91.042	232.91	90.8494	232.91	90.9171	232.91	90.3643	232.91	90.4671	232.91	89.6282	232.91	89.7048	232.91	88.6993	232.91	88.6683	232.91	87.6517	232.91	87.4321	232.91	86.573	232.91	86.1199	232.91	85.5602	232.91	84.9112	232.91	84.7143	232.91	84.0112	232.91	84.1328	232.91	83.5608	232.91	83.8946	232.91	83.544	232.91	84.0265	232.91	83.8088	232.91	84.4675	232.91	84.1819	232.91	85.0714	232.91	84.5522	232.91	85.6611	232.91	84.8807	232.91	86.0923	232.91	85.1755	232.91	86.2893	232.91	85.4627	232.91	86.2527	232.91	85.7597	232.91	86.046
241.699	91.0594	241.699	90.8142	241.699	90.9841	241.699	90.2702	241.699	90.5829	241.699	89.4668	241.699	89.8685	241.699	88.4619	241.699	88.8751	241.699	87.3324	241.699	87.6659	241.699	86.1747	241.699	86.3445	241.699	85.1018	241.699	85.0647	241.699	84.2359	241.699	84.0174	241.699	83.6915	241.699	83.3634	241.699	83.5463	241.699	83.1356	241.699	83.8085	241.699	83.2215	241.699	84.3972	241.699	83.4685	241.699	85.1567	241.699	83.7865	241.699	85.9022	241.699	84.1668	241.699	86.4702	241.699	84.638	241.699	86.7517	241.699	85.2076	241.699	86.7061	241.699	85.8213	241.699	86.3643
250.488	90.6521	250.488	90.438	250.488	90.489	250.488	89.8745	250.488	89.9452	250.488	89.0106	250.488	89.0461	250.488	87.9169	250.488	87.8568	250.488	86.6867	250.488	86.4953	250.488	85.4378	250.488	85.1408	250.488	84.3082	250.488	84.0116	250.488	83.4433	250.488	83.2911	250.488	82.9727	250.488	83.0386	250.488	82.9746	250.488	83.1729	250.488	83.4372	250.488	83.5348	250.488	84.2379	250.488	83.9642	250.488	85.1737	250.488	84.3572	250.488	86.0297	250.488	84.6961	250.488	86.6385	250.488	85.0394	250.488	86.9083	250.488	85.4609	250.488	86.8299	250.488	85.9687	250.488	86.4732
259.277	91.4767	259.277	91.1192	259.277	91.4419	259.277	90.4118	259.277	90.9837	259.277	89.4052	259.277	90.087	259.277	88.1576	259.277	88.7627	259.277	86.7395	259.277	87.0676	259.277	85.2461	259.277	85.1512	259.277	83.8132	259.277	83.3294	259.277	82.624	259.277	82.0819	259.277	81.877	259.277	81.7357	259.277	81.7045	259.277	82.1251	259.277	82.0944	259.277	82.8492	259.277	82.8918	259.277	83.6273	259.277	83.8678	259.277	84.3276	259.277	84.799	259.277	84.8963	259.277	85.5226	259.277	85.326	259.277	85.9612	259.277	85.6452	259.277	86.1205	259.277	85.8918	259.277	86.0684
268.066	90.604	268.066	90.221	268.066	90.6404	268.066	89.5313	268.066	90.3019	268.066	88.5812	268.066	89.5792	268.066	87.4199	268.066	88.4898	268.066	86.1026	268.066	87.0913	268.066	84.7	268.066	85.5055	268.066	83.316	268.066	83.9519	268.066	82.1086	268.066	82.7495	268.066	81.296	268.066	82.1862	268.066	81.1006	268.066	82.282	268.066	81.6049	268.066	82.7749	268.066	82.6434	268.066	83.3644	268.066	83.8845	268.066	83.8715	268.066	85.0061	268.066	84.2491	268.066	85.7935	268.066	84.5491	268.066	86.1531	268.066	84.8739	268.066	86.1021	268.066	85.2924	268.066	85.7554
276.855	89.9957	276.855	89.7076	276.855	89.9988	276.855	89.1638	276.855	89.6819	276.855	88.3871	276.855	89.0158	276.855	87.4035	276.855	87.9929	276.855	86.2554	276.855	86.6475	276.855	85.0067	276.855	85.0877	276.855	83.7388	276.855	83.5429	276.855	82.5421	276.855	82.3751	276.855	81.5188	276.855	81.9005	276.855	80.8113	276.855	82.0901	276.855	80.6323	276.855	82.6264	276.855	81.1711	276.855	83.2213	276.855	82.3355	276.855	83.7416	276.855	83.724	276.855	84.1809	276.855	84.9289	276.855	84.6039	276.855	85.7197	276.855	85.0704	276.855	86.0349	276.855	85.5557	276.855	85.9337
287.109	90.3808	287.109	90.1891	287.109	90.2388	287.109	89.6834	287.109	89.7532	287.109	88.8924	287.109	88.9254	287.109	87.8538	287.109	87.7753	287.109	86.616	287.109	86.3603	287.109	85.2442	287.109	84.8135	287.109	83.8349	287.109	83.3998	287.109	82.5325	287.109	82.4985	287.109	81.5236	287.109	82.3465	287.109	80.9825	287.109	82.7631	287.109	81.0046	287.109	83.3534	287.109	81.5794	287.109	83.8497	287.109	82.5727	287.109	84.1838	287.109	83.7273	287.109	84.4114	287.109	84.7531	287.109	84.631	287.109	85.4409	287.109	84.9227	287.109	85.7108	287.109	85.2873	287.109	85.6104
297.363	90.4716	297.363	90.3178	297.363	90.277	297.363	89.7965	297.363	89.7501	297.363	88.913	297.363	88.8865	297.363	87.7211	297.363	87.6636	297.363	86.3351	297.363	86.0629	297.363	84.9194	297.363	84.1193	297.363	83.6455	297.363	82.0462	297.363	82.636	297.363	80.4655	297.363	81.9335	297.363	80.1476	297.363	81.513	297.363	80.8652	297.363	81.3262	297.363	81.7782	297.363	81.3742	297.363	82.4948	297.363	81.7618	297.363	83.041	297.363	82.5852	297.363	83.5873	297.363	83.7028	297.363	84.2459	297.363	84.7708	297.363	84.9553	297.363	85.4946	297.363	85.5208	297.363	85.7413
307.617	90.6788	307.617	90.4505	307.617	90.4717	307.617	89.7873	307.617	89.8541	307.617	88.7194	307.617	88.87	307.617	87.308	307.617	87.5745	307.617	85.6474	307.617	86.0264	307.617	83.8715	307.617	84.292	307.617	82.1727	307.617	82.4773	307.617	80.8175	307.617	80.8018	307.617	80.0792	307.617	79.6431	307.617	80.0515	307.617	79.3269	307.617	80.5683	307.617	79.7731	307.617	81.3619	307.617	80.6166	307.617	82.213	307.617	81.5622	307.617	82.98	307.617	82.4602	307.617	83.5889	307.617	83.2332	307.617	84.0174	307.617	83.8242	307.617	84.2679	307.617	84.1939	307.617	84.3347
319.336	89.7593	319.336	89.593	319.336	89.4957	319.336	89.0252	319.336	88.79	319.336	88.1024	319.336	87.6456	319.336	86.8909	319.336	86.0879	319.336	85.4747	319.336	84.1867	319.336	83.9535	319.336	82.1125	319.336	82.45	319.336	80.228	319.336	81.1325	319.336	79.0525	319.336	80.2146	319.336	78.8365	319.336	79.877	319.336	79.2906	319.336	80.163	319.336	79.9894	319.336	80.9743	319.336	80.6845	319.336	82.1256	319.336	81.3052	319.336	83.3701	319.336	81.908	319.336	84.4439	319.336	82.606	319.336	85.1352	319.336	83.4471	319.336	85.3283	319.336	84.3243	319.336	85.0202
329.59	89.8691	329.59	89.7455	329.59	89.5747	329.59	89.189	329.59	88.8854	329.59	88.2175	329.59	87.8125	329.59	86.8993	329.59	86.3502	329.59	85.3521	329.59	84.4903	329.59	83.7198	329.59	82.267	329.59	82.1427	329.59	79.8919	329.59	80.7643	329.59	78.0546	329.59	79.7719	329.59	77.7634	329.59	79.3766	329.59	78.8899	329.59	79.6744	329.59	80.4264	329.59	80.5537	329.59	81.8077	329.59	81.772	329.59	82.8782	329.59	83.061	329.59	83.6414	329.59	84.1758	329.59	84.1756	329.59	84.9365	329.59	84.5906	329.59	85.2706	329.59	84.9557	329.59	85.2294
341.309	89.9638	341.309	89.8607	341.309	89.587	341.309	89.2452	341.309	88.7952	341.309	88.1329	341.309	87.6651	341.309	86.6032	341.309	86.2589	341.309	84.8188	341.309	84.6049	341.309	83.0289	341.309	82.7124	341.309	81.5137	341.309	80.6553	341.309	80.4643	341.309	78.7906	341.309	79.9126	341.309	77.9235	341.309	79.7845	341.309	78.4834	341.309	79.9909	341.309	79.7853	341.309	80.4904	341.309	81.1363	341.309	81.3105	341.309	82.3341	341.309	82.4547	341.309	83.4026	341.309	83.7562	341.309	84.377	341.309	84.9199	341.309	85.2136	341.309	85.7006	341.309	85.7954	341.309	85.9887
353.027	90.6722	353.027	90.4495	353.027	90.4308	353.027	89.7447	353.027	89.7615	353.027	88.5643	353.027	88.7073	353.027	86.9379	353.027	87.3099	353.027	84.9192	353.027	85.613	353.027	82.6123	353.027	83.6918	353.027	80.2771	353.027	81.7141	353.027	78.4933	353.027	80.0119	353.027	77.903	353.027	79.0284	353.027	78.3922	353.027	79.0262	353.027	79.3366	353.027	79.9005	353.027	80.3399	353.027	81.3225	353.027	81.2694	353.027	82.906	353.027	82.1301	353.027	84.3179	353.027	82.9999	353.027	85.3433	353.027	83.9269	353.027	85.8859	353.027	84.8327	353.027	85.9381	353.027	85.5532
366.211	90.6596	366.211	90.59	366.211	90.173	366.211	89.9198	366.211	89.2305	366.211	88.6711	366.211	87.9538	366.211	86.9317	366.211	86.4274	366.211	84.8451	366.211	84.6631	366.211	82.5961	366.211	82.6572	366.211	80.4254	366.211	80.5964	366.211	78.7207	366.211	79.1916	366.211	77.9881	366.211	79.2432	366.211	78.3358	366.211	80.2704	366.211	79.2714	366.211	81.3403	366.211	80.303	366.211	82.1252	366.211	81.2223	366.211	82.6964	366.211	82.0272	366.211	83.2139	366.211	82.8058	366.211	83.7479	366.211	83.5825	366.211	84.241	366.211	84.2304	366.211	84.5627	366.211	84.5796
379.395	90.5117	379.395	90.2315	379.395	90.1575	379.395	89.3141	379.395	89.2518	379.395	87.8505	379.395	87.9394	379.395	86.0328	379.395	86.3809	379.395	84.1153	379.395	84.677	379.395	82.284	379.395	82.8272	379.395	80.5367	379.395	80.8169	379.395	78.7822	379.395	78.8819	379.395	77.1672	379.395	77.7728	379.395	76.3484	379.395	77.9941	379.395	76.9249	379.395	78.863	379.395	78.5085	379.395	79.6563	379.395	80.3789	379.395	80.2418	379.395	82.107	379.395	80.7969	379.395	83.4672	379.395	81.5363	379.395	84.3267	379.395	82.5152	379.395	84.6131	379.395	83.5445	379.395	84.3204
392.578	90.1064	392.578	90.0283	392.578	89.6179	392.578	89.3441	392.578	88.6807	392.578	88.1115	392.578	87.437	392.578	86.4758	392.578	85.9807	392.578	84.6212	392.578	84.3297	392.578	82.6852	392.578	82.4914	392.578	80.7327	392.578	80.6054	392.578	78.917	392.578	79.0777	392.578	77.7145	392.578	78.3529	392.578	77.6302	392.578	78.3229	392.578	78.4529	392.578	78.5296	392.578	79.619	392.578	78.8098	392.578	80.8433	392.578	79.3892	392.578	82.0907	392.578	80.557	392.578	83.378	392.578	82.2277	392.578	84.5893	392.578	83.923	392.578	85.4481	392.578	85.1612	392.578	85.6836
405.762	90.1947	405.762	90.2935	405.762	89.3068	405.762	89.5813	405.762	87.7706	405.762	88.1428	405.762	85.878	405.762	86.1877	405.762	84.0272	405.762	84.0487	405.762	82.4798	405.762	82.0576	405.762	81.172	405.762	80.3347	405.762	79.9452	405.762	78.8377	405.762	78.8791	405.762	77.7679	405.762	78.2728	405.762	77.7056	405.762	78.2533	405.762	78.7004	405.762	78.6726	405.762	80.0065	405.762	79.4458	405.762	81.0985	405.762	80.59	405.762	81.9525	405.762	81.9833	405.762	82.8614	405.762	83.3432	405.762	83.9856	405.762	84.4494	405.762	84.9798	405.762	85.1892	405.762	85.4141
420.41	90.904	420.41	90.4461	420.41	90.6171	420.41	89.3122	420.41	89.6165	420.41	87.6807	420.41	88.0156	420.41	85.8151	420.41	85.9742	420.41	83.9624	420.41	83.6202	420.41	82.2033	420.41	81.0127	420.41	80.3982	420.41	78.5509	420.41	78.3008	420.41	77.739	420.41	75.8913	420.41	78.8929	420.41	74.4354	420.41	80.2571	420.41	75.9121	420.41	81.1975	420.41	78.5135	420.41	81.983	420.41	80.4759	420.41	82.9561	420.41	81.4854	420.41	84.084	420.41	81.6515	420.41	84.9815	420.41	81.4951	420.41	85.2375	420.41	81.9836	420.41	84.6446	420.41	83.3354
435.059	90.854	435.059	90.3571	435.059	90.6821	435.059	89.2108	435.059	89.9071	435.059	87.5322	435.059	88.6722	435.059	85.5905	435.059	87.1477	435.059	83.8536	435.059	85.4034	435.059	82.7218	435.059	83.2654	435.059	82.0122	435.059	80.2849	435.059	81.1616	435.059	75.9324	435.059	79.8181	435.059	72.5951	435.059	78.1691	435.059	75.6614	435.059	77.311	435.059	78.7788	435.059	78.3971	435.059	80.6552	435.059	80.6487	435.059	81.7699	435.059	82.8507	435.059	82.4484	435.059	84.4253	435.059	82.9219	435.059	85.1693	435.059	83.3916	435.059	85.1417	435.059	83.9697	435.059	84.6244
451.172	91.0996	451.172	90.8347	451.172	90.5893	451.172	89.7505	451.172	89.5088	451.172	87.9487	451.172	88.2108	451.172	85.7142	451.172	86.9933	451.172	83.5699	451.172	85.7959	451.172	82.0523	451.172	84.2559	451.172	81.1297	451.172	82.0107	451.172	80.3172	451.172	78.9209	451.172	79.3608	451.172	75.7799	451.172	78.4807	451.172	75.0928	451.172	78.164	451.172	76.4252	451.172	78.6777	451.172	77.8128	451.172	79.8781	451.172	79.2213	451.172	81.4419	451.172	81.0374	451.172	83.0712	451.172	83.1203	451.172	84.5524	451.172	84.9221	451.172	85.6866	451.172	86.0117	451.172	86.2413
465.82	91.9404	465.82	91.7768	465.82	91.1102	465.82	90.6846	465.82	89.2749	465.82	88.7778	465.82	86.5809	465.82	86.269	465.82	83.7753	465.82	83.6249	465.82	82.4484	465.82	81.6442	465.82	82.5186	465.82	80.6718	465.82	82.3691	465.82	80.0472	465.82	81.3338	465.82	79.2361	465.82	79.5392	465.82	78.4612	465.82	77.7294	465.82	78.3612	465.82	76.8466	465.82	79.1616	465.82	77.3162	465.82	80.5063	465.82	79.1593	465.82	81.9486	465.82	81.6396	465.82	83.1941	465.82	83.7968	465.82	84.2001	465.82	85.1907	465.82	85.0584	465.82	85.7852	465.82	85.6761
483.398	91.5433	483.398	90.8828	483.398	91.4947	483.398	89.6081	483.398	90.6797	483.398	87.8641	483.398	89.054	483.398	85.8416	483.398	86.5787	483.398	83.767	483.398	83.381	483.398	81.8961	483.398	80.5445	483.398	80.4478	483.398	80.0291	483.398	79.4403	483.398	80.8355	483.398	78.6908	483.398	81.3921	483.398	78.1579	483.398	81.5336	483.398	78.2741	483.398	81.3857	483.398	79.4426	483.398	80.9803	483.398	81.1002	483.398	80.6394	483.398	82.3789	483.398	81.1984	483.398	82.8756	483.398	82.4869	483.398	82.7103	483.398	83.3337	483.398	82.4897	483.398	83.306	483.398	82.781
499.512	90.9426	499.512	90.8518	499.512	90.4293	499.512	90.0563	499.512	89.5306	499.512	88.612	499.512	88.4337	499.512	86.7246	499.512	87.1009	499.512	84.7335	499.512	85.2615	499.512	83.0432	499.512	82.6342	499.512	81.8277	499.512	79.6646	499.512	80.7508	499.512	78.9112	499.512	79.3234	499.512	80.5277	499.512	77.4639	499.512	81.974	499.512	76.1882	499.512	82.6616	499.512	77.1557	499.512	82.5665	499.512	79.2339	499.512	81.6731	499.512	80.8488	499.512	80.3677	499.512	81.8458	499.512	79.7982	499.512	82.5519	499.512	80.713	499.512	83.0564	499.512	82.1674	499.512	83.0335
517.09	91.6194	517.09	90.7359	517.09	91.5678	517.09	89.2218	517.09	90.483	517.09	87.4276	517.09	88.6778	517.09	85.6034	517.09	87.0476	517.09	84.0789	517.09	86.0694	517.09	83.4315	517.09	84.7987	517.09	83.6191	517.09	82.3138	517.09	83.7825	517.09	80.126	517.09	83.2451	517.09	82.0866	517.09	81.6478	517.09	84.2802	517.09	78.6945	517.09	84.7524	517.09	75.2567	517.09	84.0621	517.09	77.1057	517.09	83.4791	517.09	80.6892	517.09	84.0565	517.09	82.305	517.09	85.3032	517.09	82.1156	517.09	85.7333	517.09	81.5121	517.09	84.6289	517.09	82.5753
536.133	92.3738	536.133	91.7347	536.133	92.4088	536.133	90.6433	536.133	91.4856	536.133	88.9316	536.133	89.4595	536.133	86.3786	536.133	86.8956	536.133	82.8721	536.133	85.1123	536.133	78.6434	536.133	83.8595	536.133	76.3998	536.133	81.0095	536.133	78.7907	536.133	72.752	536.133	81.5427	536.133	77.3696	536.133	83.0201	536.133	83.5014	536.133	82.925	536.133	84.897	536.133	80.8566	536.133	83.4032	536.133	76.9821	536.133	80.6512	536.133	78.4749	536.133	80.3872	536.133	82.7231	536.133	83.1613	536.133	84.8456	536.133	85.1717	536.133	85.1221	536.133	85.1852	536.133	84.7072
555.176	91.0362	555.176	90.7957	555.176	90.7432	555.176	89.967	555.176	89.749	555.176	88.4812	555.176	87.7865	555.176	86.4508	555.176	84.9988	555.176	84.184	555.176	82.9556	555.176	82.019	555.176	82.9466	555.176	79.962	555.176	82.7319	555.176	77.6222	555.176	80.3714	555.176	75.841	555.176	74.4483	555.176	77.6801	555.176	72.3746	555.176	80.2711	555.176	75.8354	555.176	81.1082	555.176	75.9312	555.176	79.9648	555.176	75.7929	555.176	78.0766	555.176	77.2951	555.176	78.9275	555.176	79.5164	555.176	80.8008	555.176	81.0512	555.176	82.0137	555.176	81.9106	555.176	82.4317
574.219	92.1369	574.219	91.6256	574.219	91.9367	574.219	90.4062	574.219	90.9366	574.219	88.4844	574.219	88.9978	574.219	86.0583	574.219	86.1004	574.219	83.7425	574.219	83.0854	574.219	82.2725	574.219	81.9268	574.219	81.3295	574.219	81.6141	574.219	79.9577	574.219	80.0787	574.219	78.2875	574.219	77.6557	574.219	78.0744	574.219	77.78	574.219	78.8655	574.219	79.2094	574.219	78.661	574.219	79.6417	574.219	77.1805	574.219	79.947	574.219	76.5706	574.219	80.5069	574.219	79.5218	574.219	81.5839	574.219	83.114	574.219	84.0642	574.219	85.1922	574.219	85.7677	574.219	85.9548
594.727	91.3364	594.727	91.1922	594.727	90.5855	594.727	90.1243	594.727	89.4572	594.727	88.4308	594.727	88.4523	594.727	86.383	594.727	87.2107	594.727	84.1342	594.727	85.1408	594.727	82.2043	594.727	82.6009	594.727	81.2106	594.727	81.0106	594.727	80.617	594.727	79.8391	594.727	79.3609	594.727	77.5466	594.727	77.1116	594.727	76.8349	594.727	76.2902	594.727	79.2335	594.727	78.2809	594.727	80.8583	594.727	79.4707	594.727	81.6435	594.727	79.164	594.727	81.7678	594.727	79.2157	594.727	80.637	594.727	81.9481	594.727	78.8939	594.727	83.841	594.727	79.8056	594.727	82.8092
615.234	90.9459	615.234	90.8118	615.234	90.6228	615.234	90.1661	615.234	89.6377	615.234	88.8693	615.234	87.8968	615.234	86.9892	615.234	85.7876	615.234	84.8392	615.234	84.091	615.234	82.91	615.234	83.055	615.234	81.5379	615.234	82.1386	615.234	80.537	615.234	81.0728	615.234	79.6104	615.234	80.1854	615.234	78.8928	615.234	79.8994	615.234	78.7067	615.234	79.9617	615.234	78.7303	615.234	79.9909	615.234	78.4155	615.234	80.3721	615.234	79.186	615.234	81.0889	615.234	81.2685	615.234	81.7303	615.234	81.6961	615.234	81.1716	615.234	79.4449	615.234	78.5132	615.234	76.8142
637.207	92.0751	637.207	91.5462	637.207	91.2421	637.207	89.8551	637.207	89.3874	637.207	87.5507	637.207	87.487	637.207	85.2107	637.207	86.2092	637.207	83.0831	637.207	85.0964	637.207	81.5754	637.207	83.7117	637.207	81.2318	637.207	82.0644	637.207	81.1975	637.207	80.2908	637.207	80.5262	637.207	79.4124	637.207	79.2046	637.207	80.7491	637.207	78.1296	637.207	81.7344	637.207	79.213	637.207	79.759	637.207	80.6768	637.207	73.6194	637.207	79.6879	637.207	69.7835	637.207	76.8607	637.207	75.8616	637.207	79.502	637.207	82.887	637.207	84.2213	637.207	86.2619	637.207	86.6627
659.18	90.3621	659.18	89.9545	659.18	90.1893	659.18	88.9403	659.18	89.5393	659.18	87.6252	659.18	88.293	659.18	86.4231	659.18	86.3143	659.18	85.3134	659.18	84.1156	659.18	83.8911	659.18	82.7234	659.18	82.1088	659.18	81.5134	659.18	80.6375	659.18	79.3747	659.18	79.7195	659.18	78.6907	659.18	78.6237	659.18	80.8509	659.18	77.9505	659.18	81.9802	659.18	79.7164	659.18	81.2066	659.18	81.2972	659.18	79.5824	659.18	80.3522	659.18	79.8663	659.18	77.8648	659.18	80.4453	659.18	78.5386	659.18	80.3831	659.18	80.6262	659.18	80.6047	659.18	81.041
682.617	90.9716	682.617	90.3999	682.617	90.6641	682.617	89.3846	682.617	89.5121	682.617	88.258	682.617	87.9088	682.617	86.8254	682.617	86.1387	682.617	84.8533	682.617	84.6277	682.617	82.9282	682.617	83.8779	682.617	82.1951	682.617	82.8593	682.617	82.2984	682.617	79.1947	682.617	82.2343	682.617	71.032	682.617	81.4822	682.617	78.7012	682.617	79.2859	682.617	82.3421	682.617	76.3272	682.617	82.4676	682.617	78.2043	682.617	81.8337	682.617	79.514	682.617	82.4096	682.617	78.7614	682.617	82.4115	682.617	79.9807	682.617	81.9412	682.617	83.9125	682.617	83.0728	682.617	84.8279
707.52	90.5994	707.52	89.6945	707.52	90.2334	707.52	88.1917	707.52	88.7178	707.52	86.9407	707.52	87.1738	707.52	86.103	707.52	86.1993	707.52	84.9725	707.52	84.8062	707.52	83.0237	707.52	82.8177	707.52	80.9234	707.52	82.0757	707.52	79.9582	707.52	81.8115	707.52	80.2672	707.52	79.4396	707.52	80.8374	707.52	74.3371	707.52	80.0949	707.52	77.3528	707.52	77.6638	707.52	80.4029	707.52	77.7572	707.52	79.3859	707.52	79.4656	707.52	76.9729	707.52	78.7239	707.52	76.1424	707.52	76.7631	707.52	78.171	707.52	79.425	707.52	79.6761	707.52	80.2238
732.422	89.9933	732.422	89.6411	732.422	89.4872	732.422	88.7625	732.422	88.1964	732.422	87.7881	732.422	86.9058	732.422	87.0694	732.422	86.2153	732.422	86.2534	732.422	85.5851	732.422	84.5087	732.422	84.4647	732.422	81.6975	732.422	83.0342	732.422	79.7488	732.422	81.6646	732.422	80.1092	732.422	80.1014	732.422	80.9875	732.422	78.5445	732.422	80.9337	732.422	79.2463	732.422	78.7682	732.422	80.0013	732.422	77.9998	732.422	77.2367	732.422	81.1051	732.422	72.6478	732.422	80.7597	732.422	74.1508	732.422	77.6274	732.422	78.4976	732.422	78.2357	732.422	80.4018	732.422	80.5257
757.324	89.3684	757.324	88.6441	757.324	89.5972	757.324	87.8883	757.324	88.7014	757.324	87.3331	757.324	86.7019	757.324	86.8245	757.324	85.2134	757.324	85.902	757.324	85.0245	757.324	84.3474	757.324	84.5228	757.324	82.2233	757.324	82.8523	757.324	79.7664	757.324	80.5135	757.324	78.0822	757.324	80.0283	757.324	78.6352	757.324	80.448	757.324	79.8854	757.324	79.7668	757.324	79.4425	757.324	78.3194	757.324	77.0563	757.324	77.1276	757.324	76.1354	757.324	79.2287	757.324	76.4554	757.324	81.8246	757.324	77.8055	757.324	81.6767	757.324	80.7357	757.324	82.2839	757.324	82.4088
785.156	89.9628	785.156	88.8925	785.156	89.762	785.156	87.8588	785.156	87.8328	785.156	87.9348	785.156	85.2984	785.156	88.0974	785.156	84.959	785.156	87.0527	785.156	85.4959	785.156	85.222	785.156	84.6124	785.156	83.8161	785.156	83.1776	785.156	82.7024	785.156	81.9412	785.156	80.7192	785.156	79.3238	785.156	80.1626	785.156	80.7406	785.156	81.6883	785.156	83.4379	785.156	80.7002	785.156	82.024	785.156	76.3052	785.156	79.9997	785.156	78.8249	785.156	80.0648	785.156	78.7061	785.156	79.3926	785.156	77.484	785.156	82.275	785.156	78.9251	785.156	83.7689	785.156	82.3785
811.523	90.3947	811.523	89.9537	811.523	89.9984	811.523	88.3247	811.523	89.4615	811.523	87.0549	811.523	87.7348	811.523	86.6273	811.523	86.574	811.523	86.3269	811.523	87.2537	811.523	85.6119	811.523	86.5221	811.523	84.6296	811.523	84.7165	811.523	83.5955	811.523	83.1732	811.523	81.6156	811.523	79.9383	811.523	78.8655	811.523	78.5471	811.523	80.4097	811.523	80.4329	811.523	81.0642	811.523	79.4611	811.523	76.803	811.523	74.1364	811.523	73.9162	811.523	67.4512	811.523	80.4422	811.523	70.5948	811.523	81.2911	811.523	77.2585	811.523	79.2875	811.523	80.0936	811.523	80.1229
840.82	89.7002	840.82	89.269	840.82	88.7696	840.82	88.4342	840.82	86.8519	840.82	87.6915	840.82	86.1681	840.82	87.5019	840.82	86.854	840.82	87.546	840.82	88.0949	840.82	86.3094	840.82	87.8595	840.82	83.1465	840.82	83.7848	840.82	81.4065	840.82	82.4048	840.82	82.3972	840.82	84.9385	840.82	82.0247	840.82	83.4497	840.82	80.2325	840.82	80.7981	840.82	81.0384	840.82	79.7252	840.82	81.5577	840.82	78.9899	840.82	78.6951	840.82	80.0525	840.82	81.4458	840.82	77.662	840.82	82.9034	840.82	72.3433	840.82	78.1073	840.82	76.9702	840.82	78.7863
870.117	91.1557	870.117	90.2386	870.117	90.5026	870.117	87.9835	870.117	88.799	870.117	86.6055	870.117	87.5952	870.117	86.6972	870.117	87.353	870.117	86.9563	870.117	87.8116	870.117	86.3599	870.117	88.3949	870.117	85.3858	870.117	86.8682	870.117	84.5017	870.117	81.559	870.117	82.9911	870.117	80.6111	870.117	79.1346	870.117	84.9556	870.117	78.6632	870.117	85.4021	870.117	83.0382	870.117	83.7078	870.117	81.9382	870.117	81.9262	870.117	75.4252	870.117	78.2916	870.117	76.6533	870.117	79.9089	870.117	77.4224	870.117	81.8552	870.117	78.8061	870.117	81.0492	870.117	80.6211
900.879	90.7976	900.879	89.3158	900.879	89.9389	900.879	86.6577	900.879	89.0706	900.879	87.0612	900.879	87.8767	900.879	88.5447	900.879	85.9732	900.879	88.9126	900.879	86.9879	900.879	87.6081	900.879	87.5598	900.879	84.7241	900.879	85.447	900.879	82.7371	900.879	81.3566	900.879	83.5206	900.879	78.5709	900.879	83.1689	900.879	84.4629	900.879	78.3429	900.879	86.3408	900.879	80.38	900.879	84.4717	900.879	83.3424	900.879	72.5151	900.879	77.3821	900.879	75.2586	900.879	42.9285	900.879	69.5757	900.879	78.6685	900.879	80.6116	900.879	79.5751	900.879	83.6994	900.879	81.157
933.105	89.8093	933.105	89.4482	933.105	87.3862	933.105	87.908	933.105	83.6708	933.105	86.2315	933.105	84.8064	933.105	86.3003	933.105	86.1269	933.105	87.3202	933.105	86.3536	933.105	87.2552	933.105	87.8721	933.105	85.2654	933.105	86.4199	933.105	80.623	933.105	81.8938	933.105	79.7507	933.105	75.4626	933.105	83.7492	933.105	70.9648	933.105	84.3505	933.105	82.547	933.105	79.59	933.105	83.0189	933.105	82.0593	933.105	78.6146	933.105	80.6493	933.105	78.3947	933.105	56.64	933.105	75.6317	933.105	77.326	933.105	73.2245	933.105	80.8566	933.105	77.2526	933.105	77.7731
965.332	89.0388	965.332	87.6673	965.332	89.2223	965.332	86.4633	965.332	87.9053	965.332	86.445	965.332	86.691	965.332	86.8215	965.332	87.5227	965.332	86.6012	965.332	87.7133	965.332	85.7516	965.332	86.8668	965.332	84.3356	965.332	84.6696	965.332	81.7241	965.332	80.3492	965.332	77.5699	965.332	77.714	965.332	76.5287	965.332	73.8172	965.332	79.9564	965.332	78.7847	965.332	78.1637	965.332	82.5543	965.332	74.7975	965.332	77.5077	965.332	78.6839	965.332	73.9882	965.332	74.2321	965.332	74.8372	965.332	71.9406	965.332	80.5029	965.332	73.8806	965.332	78.4179	965.332	73.248
1,000.49	88.5509	1,000.49	87.6242	1,000.49	88.3126	1,000.49	86.6548	1,000.49	87.6788	1,000.49	86.022	1,000.49	87.0731	1,000.49	86.051	1,000.49	85.2127	1,000.49	86.3946	1,000.49	85.0778	1,000.49	85.4454	1,000.49	86.5398	1,000.49	83.4649	1,000.49	84.7555	1,000.49	81.8639	1,000.49	80.0607	1,000.49	80.4656	1,000.49	81.9846	1,000.49	77.6386	1,000.49	79.767	1,000.49	77.8461	1,000.49	73.9872	1,000.49	79.0603	1,000.49	76.573	1,000.49	72.565	1,000.49	64.0846	1,000.49	78.2225	1,000.49	79.8372	1,000.49	72.7575	1,000.49	76.075	1,000.49	64.7978	1,000.49	76.5079	1,000.49	77.9658	1,000.49	78.7317	1,000.49	80.04
1,035.64	86.1318	1,035.64	87.5404	1,035.64	83.6075	1,035.64	87.0743	1,035.64	84.4321	1,035.64	86.0257	1,035.64	85.3854	1,035.64	85.9455	1,035.64	86.9278	1,035.64	86.5553	1,035.64	87.1222	1,035.64	85.9594	1,035.64	85.8006	1,035.64	83.5509	1,035.64	84.8116	1,035.64	79.7135	1,035.64	80.1106	1,035.64	73.7737	1,035.64	70.6215	1,035.64	73.1918	1,035.64	83.2674	1,035.64	79.8187	1,035.64	84.3782	1,035.64	81.1203	1,035.64	82.4899	1,035.64	75.3651	1,035.64	80.4543	1,035.64	77.0524	1,035.64	77.6925	1,035.64	72.3655	1,035.64	76.8727	1,035.64	68.1619	1,035.64	72.6946	1,035.64	78.9521	1,035.64	69.3669	1,035.64	76.6388
1,072.27	87.2161	1,072.27	87.0764	1,072.27	86.6453	1,072.27	86.3899	1,072.27	85.2587	1,072.27	86.2628	1,072.27	84.5556	1,072.27	86.7352	1,072.27	83.5837	1,072.27	86.5603	1,072.27	84.7953	1,072.27	84.6756	1,072.27	86.2775	1,072.27	81.7009	1,072.27	84.7244	1,072.27	80.5805	1,072.27	80.432	1,072.27	80.6588	1,072.27	68.5332	1,072.27	79.7342	1,072.27	75.7234	1,072.27	71.4899	1,072.27	80.603	1,072.27	81.7173	1,072.27	81.1143	1,072.27	79.0748	1,072.27	69.7391	1,072.27	74.4901	1,072.27	74.3242	1,072.27	78.8587	1,072.27	65.7034	1,072.27	71.4706	1,072.27	74.9816	1,072.27	73.4178	1,072.27	76.2388	1,072.27	72.4983
1,108.89	87.2169	1,108.89	86.5554	1,108.89	87.0089	1,108.89	85.2633	1,108.89	86.8923	1,108.89	85.7559	1,108.89	86.9743	1,108.89	86.6895	1,108.89	87.3874	1,108.89	86.4198	1,108.89	86.0724	1,108.89	85.4427	1,108.89	84.9618	1,108.89	83.8338	1,108.89	83.296	1,108.89	80.9785	1,108.89	77.4619	1,108.89	80.2535	1,108.89	77.8694	1,108.89	80.9556	1,108.89	75.7497	1,108.89	75.4408	1,108.89	77.4301	1,108.89	75.7381	1,108.89	77.4583	1,108.89	78.842	1,108.89	78.6167	1,108.89	68.0741	1,108.89	81.5824	1,108.89	73.7391	1,108.89	78.2153	1,108.89	68.8378	1,108.89	73.7662	1,108.89	68.3122	1,108.89	74.4398	1,108.89	77.186
1,148.44	86.7617	1,148.44	86.1336	1,148.44	88.2284	1,148.44	86.5919	1,148.44	87.5428	1,148.44	86.1463	1,148.44	86.7993	1,148.44	86.1821	1,148.44	86.0925	1,148.44	85.5141	1,148.44	85.2909	1,148.44	84.6064	1,148.44	84.8787	1,148.44	83.1235	1,148.44	83.2402	1,148.44	79.8106	1,148.44	80.4515	1,148.44	75.1715	1,148.44	74.2801	1,148.44	78.7384	1,148.44	78.5102	1,148.44	80.211	1,148.44	78.086	1,148.44	73.799	1,148.44	81.4295	1,148.44	80.4619	1,148.44	76.3917	1,148.44	70.7276	1,148.44	70.2454	1,148.44	72.0872	1,148.44	77.3909	1,148.44	77.8141	1,148.44	75.7709	1,148.44	75.1575	1,148.44	70.9343	1,148.44	75.4782
1,189.45	86.232	1,189.45	87.214	1,189.45	87.1634	1,189.45	86.1619	1,189.45	88.3451	1,189.45	85.0467	1,189.45	86.8227	1,189.45	85.8663	1,189.45	85.7722	1,189.45	86.5979	1,189.45	85.89	1,189.45	85.354	1,189.45	84.4834	1,189.45	81.1924	1,189.45	82.8621	1,189.45	79.2312	1,189.45	79.8471	1,189.45	78.7134	1,189.45	75.4383	1,189.45	67.8596	1,189.45	68.7283	1,189.45	77.4523	1,189.45	74.8151	1,189.45	75.1145	1,189.45	75.3732	1,189.45	76.4445	1,189.45	76.9852	1,189.45	75.7716	1,189.45	79.2304	1,189.45	64.5526	1,189.45	75.8725	1,189.45	71.6955	1,189.45	68.2833	1,189.45	68.471	1,189.45	74.8995	1,189.45	72.6231
1,230.47	86.0789	1,230.47	88.4246	1,230.47	86.7914	1,230.47	87.455	1,230.47	87.2017	1,230.47	84.8675	1,230.47	85.8572	1,230.47	86.3662	1,230.47	83.7018	1,230.47	86.5739	1,230.47	84.3288	1,230.47	84.823	1,230.47	85.7069	1,230.47	81.6031	1,230.47	82.4312	1,230.47	78.3351	1,230.47	75.9158	1,230.47	77.3779	1,230.47	76.1717	1,230.47	73.8382	1,230.47	77.288	1,230.47	76.2892	1,230.47	77.744	1,230.47	72.969	1,230.47	79.534	1,230.47	74.555	1,230.47	72.0975	1,230.47	76.5247	1,230.47	64.8465	1,230.47	57.4264	1,230.47	77.1934	1,230.47	71.3058	1,230.47	77.3367	1,230.47	73.8869	1,230.47	77.3	1,230.47	75.751
1,274.41	87.6201	1,274.41	88.3082	1,274.41	86.0776	1,274.41	87.3717	1,274.41	85.6411	1,274.41	86.5668	1,274.41	85.9377	1,274.41	85.9146	1,274.41	85.7923	1,274.41	85.1788	1,274.41	86.4996	1,274.41	84.5075	1,274.41	84.0727	1,274.41	83.6201	1,274.41	84.1211	1,274.41	81.8274	1,274.41	80.4095	1,274.41	76.4857	1,274.41	74.7133	1,274.41	76.3031	1,274.41	78.552	1,274.41	73.0111	1,274.41	79.1981	1,274.41	79.8496	1,274.41	74.123	1,274.41	78.3074	1,274.41	79.9476	1,274.41	68.7075	1,274.41	80.7839	1,274.41	64.844	1,274.41	72.0377	1,274.41	76.1437	1,274.41	53.4206	1,274.41	73.1018	1,274.41	74.7138	1,274.41	65.2665
1,319.82	87.5094	1,319.82	87.6374	1,319.82	86.9688	1,319.82	87.3977	1,319.82	84.8461	1,319.82	85.8777	1,319.82	83.669	1,319.82	86.0632	1,319.82	83.4811	1,319.82	86.2405	1,319.82	83.4784	1,319.82	84.8975	1,319.82	85.4934	1,319.82	82.5301	1,319.82	84.0215	1,319.82	78.0357	1,319.82	78.458	1,319.82	80.6763	1,319.82	64.2544	1,319.82	80.8566	1,319.82	76.8729	1,319.82	74.7458	1,319.82	83.0047	1,319.82	75.6441	1,319.82	77.4431	1,319.82	67.0681	1,319.82	64.5776	1,319.82	73.018	1,319.82	62.1012	1,319.82	72.7203	1,319.82	75.6812	1,319.82	68.4574	1,319.82	79.1616	1,319.82	65.7296	1,319.82	72.5942	1,319.82	72.497
1,366.7	88.5026	1,366.7	87.4039	1,366.7	86.0676	1,366.7	86.7107	1,366.7	85.4272	1,366.7	86.6158	1,366.7	85.8783	1,366.7	84.4303	1,366.7	83.578	1,366.7	85.2702	1,366.7	86.4289	1,366.7	86.4533	1,366.7	85.265	1,366.7	82.687	1,366.7	82.5152	1,366.7	77.479	1,366.7	82.8686	1,366.7	73.8638	1,366.7	79.4136	1,366.7	71.2199	1,366.7	75.1382	1,366.7	78.8941	1,366.7	71.0108	1,366.7	76.6939	1,366.7	78.3646	1,366.7	73.7136	1,366.7	80.8224	1,366.7	76.3367	1,366.7	78.2742	1,366.7	73.4206	1,366.7	76.6339	1,366.7	62.6512	1,366.7	41.5077	1,366.7	78.3829	1,366.7	74.2279	1,366.7	70.639
1,413.57	88.2677	1,413.57	86.8887	1,413.57	86.7741	1,413.57	88.2257	1,413.57	84.2362	1,413.57	86.6603	1,413.57	86.0864	1,413.57	84.9077	1,413.57	86.2208	1,413.57	86.485	1,413.57	83.5051	1,413.57	85.9891	1,413.57	84.6414	1,413.57	83.0358	1,413.57	86.5134	1,413.57	81.9346	1,413.57	81.5122	1,413.57	81.1228	1,413.57	75.955	1,413.57	81.2523	1,413.57	82.6258	1,413.57	71.9995	1,413.57	80.5495	1,413.57	76.9456	1,413.57	77.8606	1,413.57	75.9563	1,413.57	68.8773	1,413.57	75.7546	1,413.57	69.0709	1,413.57	71.3967	1,413.57	73.8639	1,413.57	76.367	1,413.57	67.1688	1,413.57	75.4131	1,413.57	64.061	1,413.57	75.7825
1,463.38	89.7156	1,463.38	88.4499	1,463.38	85.8044	1,463.38	86.7634	1,463.38	83.5771	1,463.38	84.4724	1,463.38	81.197	1,463.38	85.6896	1,463.38	84.1131	1,463.38	85.0518	1,463.38	84.9459	1,463.38	86.0203	1,463.38	85.684	1,463.38	82.6802	1,463.38	81.5871	1,463.38	80.5306	1,463.38	81.1429	1,463.38	80.8303	1,463.38	77.6321	1,463.38	74.2134	1,463.38	73.1215	1,463.38	77.4041	1,463.38	76.062	1,463.38	70.3007	1,463.38	73.7996	1,463.38	80.954	1,463.38	78.6818	1,463.38	66.056	1,463.38	77.3066	1,463.38	77.3799	1,463.38	78.9704	1,463.38	77.688	1,463.38	68.6351	1,463.38	77.3264	1,463.38	75.059	1,463.38	76.9533
1,516.11	89.6306	1,516.11	86.2323	1,516.11	86.2744	1,516.11	87.8178	1,516.11	87.7161	1,516.11	87.4107	1,516.11	85.1759	1,516.11	86.1416	1,516.11	83.7878	1,516.11	85.9617	1,516.11	83.4374	1,516.11	83.975	1,516.11	84.7005	1,516.11	82.5993	1,516.11	87.1574	1,516.11	80.7616	1,516.11	81.6262	1,516.11	78.8708	1,516.11	75.4334	1,516.11	77.0146	1,516.11	79.1928	1,516.11	76.4314	1,516.11	81.3414	1,516.11	81.0315	1,516.11	74.6217	1,516.11	72.9695	1,516.11	74.7048	1,516.11	73.3519	1,516.11	82.1544	1,516.11	75.9609	1,516.11	74.6868	1,516.11	77.3845	1,516.11	68.5435	1,516.11	77.0942	1,516.11	71.9105	1,516.11	64.6079
1,568.85	88.8293	1,568.85	88.7913	1,568.85	88.3027	1,568.85	87.1245	1,568.85	86.636	1,568.85	86.4386	1,568.85	87.0117	1,568.85	85.6389	1,568.85	84.1559	1,568.85	83.968	1,568.85	84.1798	1,568.85	84.3369	1,568.85	83.0141	1,568.85	82.7683	1,568.85	85.5037	1,568.85	80.9774	1,568.85	82.9091	1,568.85	75.4993	1,568.85	75.9354	1,568.85	77.4536	1,568.85	73.0141	1,568.85	68.5719	1,568.85	78.7645	1,568.85	79.4275	1,568.85	74.6259	1,568.85	62.5146	1,568.85	70.1082	1,568.85	67.2904	1,568.85	76.6464	1,568.85	74.3093	1,568.85	73.4588	1,568.85	71.7405	1,568.85	68.212	1,568.85	62.5711	1,568.85	72.518	1,568.85	72.3366
1,624.51	87.5714	1,624.51	87.2937	1,624.51	86.891	1,624.51	86.879	1,624.51	87.4482	1,624.51	86.298	1,624.51	86.5918	1,624.51	84.2436	1,624.51	85.7289	1,624.51	84.7819	1,624.51	84.4839	1,624.51	83.5535	1,624.51	83.8429	1,624.51	82.7495	1,624.51	83.6879	1,624.51	79.1313	1,624.51	78.2033	1,624.51	77.0002	1,624.51	74.1383	1,624.51	70.1199	1,624.51	68.9703	1,624.51	78.4353	1,624.51	73.9164	1,624.51	77.016	1,624.51	67.3016	1,624.51	77.1141	1,624.51	74.8159	1,624.51	69.1011	1,624.51	73.8699	1,624.51	68.2925	1,624.51	65.5946	1,624.51	56.4529	1,624.51	74.7186	1,624.51	77.4547	1,624.51	73.064	1,624.51	74.7143
1,681.64	87.8644	1,681.64	88.0209	1,681.64	88.018	1,681.64	86.5477	1,681.64	86.7925	1,681.64	87.1473	1,681.64	86.9229	1,681.64	85.4374	1,681.64	85.3128	1,681.64	84.8483	1,681.64	82.1176	1,681.64	83.317	1,681.64	82.6811	1,681.64	80.3605	1,681.64	82.0605	1,681.64	79.8604	1,681.64	82.1036	1,681.64	76.4417	1,681.64	76.3151	1,681.64	76.9978	1,681.64	75.5812	1,681.64	63.2402	1,681.64	73.6256	1,681.64	73.7296	1,681.64	65.2821	1,681.64	60.6377	1,681.64	64.572	1,681.64	59.9438	1,681.64	44.2103	1,681.64	72.404	1,681.64	72.5477	1,681.64	67.5909	1,681.64	73.7292	1,681.64	67.6855	1,681.64	67.5109	1,681.64	68.44
1,741.7	89.4393	1,741.7	88.9701	1,741.7	88.7627	1,741.7	86.4999	1,741.7	85.2058	1,741.7	86.426	1,741.7	85.8852	1,741.7	85.4104	1,741.7	86.1112	1,741.7	83.6014	1,741.7	84.3964	1,741.7	84.2993	1,741.7	80.1627	1,741.7	81.4658	1,741.7	83.751	1,741.7	77.523	1,741.7	78.2361	1,741.7	74.5691	1,741.7	76.8723	1,741.7	75.2216	1,741.7	63.8527	1,741.7	72.1568	1,741.7	70.2248	1,741.7	65.4148	1,741.7	64.7573	1,741.7	74.8535	1,741.7	73.7428	1,741.7	60.3184	1,741.7	73.5163	1,741.7	70.482	1,741.7	76.1238	1,741.7	59.3482	1,741.7	68.3914	1,741.7	77.5425	1,741.7	72.7348	1,741.7	71.677
1,803.22	90.1414	1,803.22	90.1001	1,803.22	89.3924	1,803.22	87.4446	1,803.22	87.6694	1,803.22	86.3434	1,803.22	85.2686	1,803.22	85.7737	1,803.22	85.2534	1,803.22	82.7196	1,803.22	83.1275	1,803.22	80.303	1,803.22	82.8264	1,803.22	80.575	1,803.22	80.9571	1,803.22	79.0968	1,803.22	83.4247	1,803.22	79.3021	1,803.22	77.8826	1,803.22	73.6366	1,803.22	76.7749	1,803.22	75.8166	1,803.22	67.9708	1,803.22	79.1788	1,803.22	64.7761	1,803.22	56.2809	1,803.22	72.966	1,803.22	64.7945	1,803.22	74.2708	1,803.22	53.1889	1,803.22	69.2726	1,803.22	70.1972	1,803.22	73.1787	1,803.22	64.7825	1,803.22	71.7959	1,803.22	73.5935
1,866.21	89.9991	1,866.21	89.2217	1,866.21	89.7417	1,866.21	88.0538	1,866.21	88.3991	1,866.21	86.1831	1,866.21	86.1929	1,866.21	85.4965	1,866.21	84.7428	1,866.21	84.7084	1,866.21	85.4772	1,866.21	86.0672	1,866.21	83.0895	1,866.21	85.6668	1,866.21	85.4119	1,866.21	82.7769	1,866.21	80.0157	1,866.21	76.4782	1,866.21	78.8281	1,866.21	71.8111	1,866.21	74.5916	1,866.21	75.0074	1,866.21	66.2812	1,866.21	69.132	1,866.21	69.7377	1,866.21	63.8568	1,866.21	60.2172	1,866.21	73.3673	1,866.21	67.5799	1,866.21	75.3632	1,866.21	70.0358	1,866.21	69.2213	1,866.21	68.6169	1,866.21	73.5283	1,866.21	70.7807	1,866.21	69.992
1,932.13	88.7122	1,932.13	88.561	1,932.13	88.0199	1,932.13	88.5596	1,932.13	87.5466	1,932.13	87.5776	1,932.13	87.267	1,932.13	85.5679	1,932.13	84.8713	1,932.13	85.6873	1,932.13	85.4328	1,932.13	85.1421	1,932.13	85.7333	1,932.13	82.0812	1,932.13	83.388	1,932.13	73.2693	1,932.13	80.1894	1,932.13	74.6883	1,932.13	77.036	1,932.13	77.9646	1,932.13	78.3836	1,932.13	76.3049	1,932.13	71.1633	1,932.13	71.0323	1,932.13	70.0227	1,932.13	65.9042	1,932.13	76.2023	1,932.13	67.7659	1,932.13	69.9627	1,932.13	61.634	1,932.13	74.6236	1,932.13	65.7321	1,932.13	67.6591	1,932.13	67.7897	1,932.13	72.6423	1,932.13	73.9627
1,999.51	89.3574	1,999.51	88.7273	1,999.51	88.8852	1,999.51	86.4743	1,999.51	86.9959	1,999.51	86.7829	1,999.51	87.1514	1,999.51	87.0596	1,999.51	85.9795	1,999.51	86.6705	1,999.51	85.9789	1,999.51	84.6957	1,999.51	83.8444	1,999.51	82.4152	1,999.51	83.5672	1,999.51	79.6818	1,999.51	78.7349	1,999.51	74.7034	1,999.51	78.5432	1,999.51	69.8262	1,999.51	72.4764	1,999.51	67.7442	1,999.51	66.6108	1,999.51	76.5099	1,999.51	70.557	1,999.51	67.2469	1,999.51	68.2855	1,999.51	72.278	1,999.51	68.8422	1,999.51	71.8689	1,999.51	70.172	1,999.51	64.4531	1,999.51	57.53	1,999.51	73.3732	1,999.51	72.9609	1,999.51	40.4168
2,069.82	89.5506	2,069.82	89.3299	2,069.82	89.381	2,069.82	88.3832	2,069.82	87.9609	2,069.82	86.249	2,069.82	86.4773	2,069.82	86.3363	2,069.82	87.5606	2,069.82	84.3384	2,069.82	85.2531	2,069.82	83.9612	2,069.82	84.2415	2,069.82	81.0535	2,069.82	81.3213	2,069.82	79.1178	2,069.82	78.1376	2,069.82	73.8898	2,069.82	75.8402	2,069.82	70.2263	2,069.82	73.6842	2,069.82	63.6083	2,069.82	72.2107	2,069.82	66.3385	2,069.82	67.7872	2,069.82	67.6454	2,069.82	68.1381	2,069.82	67.6999	2,069.82	65.7552	2,069.82	66.8138	2,069.82	67.5838	2,069.82	66.5517	2,069.82	66.1863	2,069.82	70.4181	2,069.82	67.7843	2,069.82	72.0865
2,143.07	88.6872	2,143.07	89.5947	2,143.07	89.4121	2,143.07	88.746	2,143.07	88.4539	2,143.07	87.501	2,143.07	86.9603	2,143.07	87.9712	2,143.07	86.5948	2,143.07	86.2219	2,143.07	85.7988	2,143.07	85.1533	2,143.07	83.4817	2,143.07	81.4151	2,143.07	82.0606	2,143.07	78.9751	2,143.07	76.1101	2,143.07	76.4361	2,143.07	72.9307	2,143.07	72.3953	2,143.07	70.3203	2,143.07	75.1738	2,143.07	66.503	2,143.07	66.3072	2,143.07	69.9356	2,143.07	57.4252	2,143.07	66.7946	2,143.07	71.8132	2,143.07	69.158	2,143.07	65.6751	2,143.07	50.0324	2,143.07	70.8646	2,143.07	72.3038	2,143.07	64.2805	2,143.07	69.4156	2,143.07	71.2437
2,219.24	88.2433	2,219.24	88.3056	2,219.24	88.3663	2,219.24	88.5462	2,219.24	88.8785	2,219.24	87.0659	2,219.24	87.5886	2,219.24	85.8528	2,219.24	86.3662	2,219.24	84.0979	2,219.24	84.9182	2,219.24	84.006	2,219.24	84.229	2,219.24	84.0384	2,219.24	82.9646	2,219.24	73.5381	2,219.24	76.2092	2,219.24	70.0274	2,219.24	58.0632	2,219.24	68.2145	2,219.24	74.921	2,219.24	73.9194	2,219.24	71.0605	2,219.24	66.8977	2,219.24	64.9755	2,219.24	67.563	2,219.24	64.1982	2,219.24	70.0796	2,219.24	66.4846	2,219.24	70.1748	2,219.24	67.7512	2,219.24	62.0748	2,219.24	66.8453	2,219.24	72.5853	2,219.24	72.1247	2,219.24	58.5562
2,296.88	88.4873	2,296.88	88.0379	2,296.88	88.4283	2,296.88	88.6189	2,296.88	88.1606	2,296.88	87.5473	2,296.88	87.6837	2,296.88	86.5583	2,296.88	85.664	2,296.88	86.1267	2,296.88	85.8047	2,296.88	84.7621	2,296.88	84.1884	2,296.88	80.3996	2,296.88	83.0465	2,296.88	80.665	2,296.88	79.3163	2,296.88	75.8059	2,296.88	75.0898	2,296.88	71.748	2,296.88	72.6742	2,296.88	62.6219	2,296.88	73.531	2,296.88	73.393	2,296.88	67.161	2,296.88	57.7352	2,296.88	66.1416	2,296.88	63.4656	2,296.88	62.8552	2,296.88	63.5895	2,296.88	70.9718	2,296.88	61.0068	2,296.88	68.3879	2,296.88	67.7713	2,296.88	66.8725	2,296.88	70.2464
2,378.91	88.2213	2,378.91	88.7181	2,378.91	88.5068	2,378.91	88.4243	2,378.91	88.7767	2,378.91	86.6915	2,378.91	86.7868	2,378.91	86.707	2,378.91	86.2742	2,378.91	83.7789	2,378.91	85.0767	2,378.91	83.8879	2,378.91	83.4976	2,378.91	82.7833	2,378.91	82.1542	2,378.91	76.7801	2,378.91	79.8637	2,378.91	66.0596	2,378.91	73.7449	2,378.91	72.7569	2,378.91	70.3314	2,378.91	62.5337	2,378.91	69.6555	2,378.91	66.1863	2,378.91	49.2047	2,378.91	51.6226	2,378.91	66.3196	2,378.91	67.9826	2,378.91	66.726	2,378.91	62.2661	2,378.91	69.4886	2,378.91	61.8831	2,378.91	69.0922	2,378.91	44.212	2,378.91	68.2278	2,378.91	66.7106
2,462.4	87.8037	2,462.4	87.9498	2,462.4	87.792	2,462.4	88.9303	2,462.4	88.7429	2,462.4	86.5768	2,462.4	86.3169	2,462.4	86.0575	2,462.4	86.3678	2,462.4	85.5844	2,462.4	84.5397	2,462.4	84.169	2,462.4	84.1855	2,462.4	82.7723	2,462.4	81.2768	2,462.4	78.9249	2,462.4	80.2205	2,462.4	71.1845	2,462.4	73.5455	2,462.4	63.9104	2,462.4	65.7555	2,462.4	77.4152	2,462.4	68.3712	2,462.4	66.632	2,462.4	58.9133	2,462.4	67.894	2,462.4	66.9843	2,462.4	69.7701	2,462.4	64.598	2,462.4	61.4671	2,462.4	67.6452	2,462.4	62.0927	2,462.4	67.8719	2,462.4	63.1969	2,462.4	69.3511	2,462.4	61.9464
2,548.83	88.5334	2,548.83	87.7851	2,548.83	87.8202	2,548.83	88.5989	2,548.83	88.0804	2,548.83	86.6605	2,548.83	86.8523	2,548.83	85.9453	2,548.83	85.2446	2,548.83	84.962	2,548.83	85.7391	2,548.83	83.6794	2,548.83	82.2891	2,548.83	80.0052	2,548.83	82.813	2,548.83	78.7373	2,548.83	77.3162	2,548.83	75.5435	2,548.83	75.9805	2,548.83	73.6914	2,548.83	63.9974	2,548.83	64.6298	2,548.83	69.1362	2,548.83	61.3681	2,548.83	58.5906	2,548.83	54.308	2,548.83	62.7473	2,548.83	69.5779	2,548.83	64.7451	2,548.83	60.3087	2,548.83	68.6533	2,548.83	57.7734	2,548.83	67.2007	2,548.83	67.2884	2,548.83	66.9469	2,548.83	61.2553
2,639.65	87.8653	2,639.65	88.0996	2,639.65	88.4332	2,639.65	87.7037	2,639.65	88.115	2,639.65	87.3786	2,639.65	86.9798	2,639.65	86.087	2,639.65	85.3289	2,639.65	84.9855	2,639.65	84.728	2,639.65	83.2654	2,639.65	82.9148	2,639.65	83.9452	2,639.65	82.4526	2,639.65	74.9288	2,639.65	78.2989	2,639.65	68.6094	2,639.65	66.0183	2,639.65	69.8232	2,639.65	63.7344	2,639.65	68.6157	2,639.65	64.2903	2,639.65	65.8562	2,639.65	53.9587	2,639.65	59.9309	2,639.65	67.7664	2,639.65	67.2481	2,639.65	69.6416	2,639.65	63.4487	2,639.65	66.2961	2,639.65	56.6136	2,639.65	65.3091	2,639.65	66.0021	2,639.65	66.7412	2,639.65	67.4595
2,731.93	87.7778	2,731.93	87.5626	2,731.93	87.4087	2,731.93	88.1031	2,731.93	87.9579	2,731.93	86.7617	2,731.93	86.9268	2,731.93	85.1519	2,731.93	85.3269	2,731.93	83.9886	2,731.93	84.0344	2,731.93	82.9587	2,731.93	83.5019	2,731.93	82.09	2,731.93	79.7626	2,731.93	76.3195	2,731.93	78.2061	2,731.93	70.5978	2,731.93	70.3116	2,731.93	67.2602	2,731.93	64.3365	2,731.93	66.2151	2,731.93	67.2083	2,731.93	59.7213	2,731.93	50.4057	2,731.93	66.7281	2,731.93	66.1377	2,731.93	67.8554	2,731.93	67.3131	2,731.93	64.686	2,731.93	67.246	2,731.93	60.8537	2,731.93	65.5791	2,731.93	54.9815	2,731.93	66.2555	2,731.93	62.4768
2,828.61	88.3249	2,828.61	88.0078	2,828.61	88.0238	2,828.61	88.2989	2,828.61	87.5145	2,828.61	86.3601	2,828.61	86.9248	2,828.61	86.7001	2,828.61	85.2246	2,828.61	85.7753	2,828.61	84.5008	2,828.61	83.6724	2,828.61	81.2282	2,828.61	80.5743	2,828.61	80.5816	2,828.61	80.6251	2,828.61	80.0632	2,828.61	69.0566	2,828.61	73.1742	2,828.61	71.5469	2,828.61	67.6773	2,828.61	61.9328	2,828.61	60.0762	2,828.61	63.9812	2,828.61	62.8454	2,828.61	68.0036	2,828.61	66.5384	2,828.61	66.8889	2,828.61	68.1298	2,828.61	56.5994	2,828.61	64.4761	2,828.61	59.1003	2,828.61	63.6958	2,828.61	57.394	2,828.61	64.7192	2,828.61	61.63
2,928.22	88.1107	2,928.22	88.1703	2,928.22	88.1309	2,928.22	87.348	2,928.22	87.6983	2,928.22	87.6021	2,928.22	86.8129	2,928.22	84.0757	2,928.22	84.9526	2,928.22	83.0623	2,928.22	84.4475	2,928.22	81.6725	2,928.22	81.206	2,928.22	83.6584	2,928.22	80.8536	2,928.22	76.3806	2,928.22	77.9708	2,928.22	69.9768	2,928.22	67.9968	2,928.22	61.7849	2,928.22	63.5256	2,928.22	64.1749	2,928.22	61.6439	2,928.22	66.0197	2,928.22	50.5266	2,928.22	69.4934	2,928.22	64.2885	2,928.22	70.721	2,928.22	66.3631	2,928.22	58.2024	2,928.22	68.221	2,928.22	58.1441	2,928.22	66.6015	2,928.22	60.7015	2,928.22	63.912	2,928.22	61.0775
3,030.76	88.0899	3,030.76	87.8131	3,030.76	87.7134	3,030.76	87.2106	3,030.76	87.2572	3,030.76	86.7093	3,030.76	87.0093	3,030.76	85.5306	3,030.76	84.6316	3,030.76	84.794	3,030.76	83.8585	3,030.76	83.3293	3,030.76	82.976	3,030.76	80.8854	3,030.76	81.1172	3,030.76	77.2682	3,030.76	77.9129	3,030.76	72.5789	3,030.76	58.9429	3,030.76	66.6923	3,030.76	27.1031	3,030.76	62.9498	3,030.76	63.9377	3,030.76	66.4036	3,030.76	58.4504	3,030.76	68.056	3,030.76	68.2099	3,030.76	71.6307	3,030.76	67.4256	3,030.76	63.9128	3,030.76	66.4011	3,030.76	54.9117	3,030.76	67.5798	3,030.76	54.9496	3,030.76	58.7573	3,030.76	64.2534
3,137.7	88.6029	3,137.7	88.1903	3,137.7	87.9284	3,137.7	87.6647	3,137.7	87.2531	3,137.7	86.8649	3,137.7	86.7103	3,137.7	83.5227	3,137.7	84.0529	3,137.7	82.874	3,137.7	83.5645	3,137.7	81.2324	3,137.7	82.6795	3,137.7	83.0216	3,137.7	80.4058	3,137.7	77.829	3,137.7	78.5239	3,137.7	65.6292	3,137.7	68.1523	3,137.7	68.366	3,137.7	60.2983	3,137.7	69.279	3,137.7	54.7075	3,137.7	67.6384	3,137.7	58.8873	3,137.7	57.2342	3,137.7	65.381	3,137.7	71.0222	3,137.7	65.5006	3,137.7	63.7646	3,137.7	65.9931	3,137.7	58.6079	3,137.7	63.4396	3,137.7	64.8623	3,137.7	64.8269	3,137.7	61.1861
3,249.02	88.6044	3,249.02	88.0684	3,249.02	88.264	3,249.02	87.1772	3,249.02	87.4004	3,249.02	86.6049	3,249.02	86.6217	3,249.02	84.3493	3,249.02	84.178	3,249.02	83.6504	3,249.02	83.0482	3,249.02	82.5717	3,249.02	82.529	3,249.02	80.0941	3,249.02	82.6784	3,249.02	77.5225	3,249.02	80.8143	3,249.02	67.9698	3,249.02	71.2693	3,249.02	66.6293	3,249.02	66.0523	3,249.02	62.0315	3,249.02	64.8647	3,249.02	49.3972	3,249.02	59.2089	3,249.02	64.2734	3,249.02	64.1655	3,249.02	64.3957	3,249.02	64.2693	3,249.02	63.9094	3,249.02	65.1276	3,249.02	59.5017	3,249.02	60.4385	3,249.02	64.3479	3,249.02	64.0454	3,249.02	57.7591
3,363.28	88.6445	3,363.28	88.2024	3,363.28	87.9779	3,363.28	87.3794	3,363.28	87.3767	3,363.28	86.8139	3,363.28	86.5141	3,363.28	83.9919	3,363.28	83.6669	3,363.28	84.3241	3,363.28	81.8196	3,363.28	81.291	3,363.28	83.0668	3,363.28	80.9799	3,363.28	82.6335	3,363.28	79.8026	3,363.28	80.0541	3,363.28	52.75	3,363.28	73.9419	3,363.28	73.2444	3,363.28	68.9361	3,363.28	69.5258	3,363.28	55.3284	3,363.28	57.2636	3,363.28	59.9226	3,363.28	61.7012	3,363.28	65.3874	3,363.28	65.3528	3,363.28	63.7237	3,363.28	59.3454	3,363.28	63.0958	3,363.28	55.6167	3,363.28	64.4879	3,363.28	62.8139	3,363.28	60.2454	3,363.28	54.4818
3,481.93	89.2848	3,481.93	88.6991	3,481.93	88.5352	3,481.93	87.4265	3,481.93	87.1155	3,481.93	86.7153	3,481.93	86.6029	3,481.93	84.0044	3,481.93	83.9293	3,481.93	81.3511	3,481.93	82.0314	3,481.93	81.1067	3,481.93	81.3121	3,481.93	80.8617	3,481.93	81.4593	3,481.93	77.1946	3,481.93	79.8502	3,481.93	72.395	3,481.93	73.2686	3,481.93	65.5939	3,481.93	66.6458	3,481.93	60.5332	3,481.93	64.302	3,481.93	63.1724	3,481.93	62.8471	3,481.93	61.4603	3,481.93	60.6772	3,481.93	65.6588	3,481.93	62.4392	3,481.93	63.3659	3,481.93	61.197	3,481.93	56.6415	3,481.93	64.2342	3,481.93	54.8184	3,481.93	64.2032	3,481.93	55.996
3,604.98	88.8745	3,604.98	88.762	3,604.98	88.7823	3,604.98	87.5173	3,604.98	87.3857	3,604.98	86.597	3,604.98	86.2096	3,604.98	83.6814	3,604.98	83.7902	3,604.98	82.8639	3,604.98	80.7304	3,604.98	79.4081	3,604.98	79.858	3,604.98	80.878	3,604.98	80.3318	3,604.98	80.1447	3,604.98	76.9478	3,604.98	54.9143	3,604.98	66.1383	3,604.98	73.4329	3,604.98	65.0028	3,604.98	62.0761	3,604.98	56.8609	3,604.98	66.1538	3,604.98	61.1771	3,604.98	59.1832	3,604.98	61.762	3,604.98	64.2023	3,604.98	60.7842	3,604.98	55.6263	3,604.98	64.5549	3,604.98	53.2099	3,604.98	62.5477	3,604.98	49.8896	3,604.98	62.6742	3,604.98	61.3999
3,732.42	88.7124	3,732.42	88.6613	3,732.42	88.632	3,732.42	87.2659	3,732.42	87.5052	3,732.42	86.3433	3,732.42	86.0967	3,732.42	84.1219	3,732.42	83.9124	3,732.42	81.4764	3,732.42	80.8706	3,732.42	80.4045	3,732.42	80.0812	3,732.42	80.5551	3,732.42	80.8073	3,732.42	76.1019	3,732.42	77.4774	3,732.42	71.3166	3,732.42	66.1799	3,732.42	68.5803	3,732.42	48.717	3,732.42	68.3219	3,732.42	50.2284	3,732.42	64.6384	3,732.42	60.7736	3,732.42	62.8969	3,732.42	56.67	3,732.42	58.0322	3,732.42	57.3833	3,732.42	56.9527	3,732.42	64.6729	3,732.42	57.6072	3,732.42	61.5658	3,732.42	61.1486	3,732.42	59.8787	3,732.42	57.6114
3,864.26	88.9628	3,864.26	89.3814	3,864.26	89.0609	3,864.26	87.3377	3,864.26	87.1872	3,864.26	85.9266	3,864.26	86.1805	3,864.26	83.7282	3,864.26	84.3998	3,864.26	80.4366	3,864.26	81.3139	3,864.26	79.7468	3,864.26	79.8507	3,864.26	80.2385	3,864.26	79.4394	3,864.26	76.7907	3,864.26	77.5987	3,864.26	68.1707	3,864.26	69.7226	3,864.26	76.2354	3,864.26	61.8017	3,864.26	73.6266	3,864.26	59.7503	3,864.26	65.5761	3,864.26	48.1735	3,864.26	67.8962	3,864.26	55.2901	3,864.26	47.6662	3,864.26	57.5711	3,864.26	58.7432	3,864.26	59.8899	3,864.26	57.2145	3,864.26	64.1643	3,864.26	52.5262	3,864.26	61.6435	3,864.26	62.0932
4,000.49	89.1828	4,000.49	88.8686	4,000.49	88.8723	4,000.49	87.6317	4,000.49	87.7383	4,000.49	86.4286	4,000.49	85.7918	4,000.49	83.7152	4,000.49	82.731	4,000.49	80.1133	4,000.49	80.6442	4,000.49	79.5668	4,000.49	79.4172	4,000.49	79.5581	4,000.49	73.8572	4,000.49	76.6265	4,000.49	75.3246	4,000.49	58.5898	4,000.49	66.6047	4,000.49	71.0255	4,000.49	53.8019	4,000.49	71.4915	4,000.49	46.0736	4,000.49	64.9587	4,000.49	60.7037	4,000.49	66.6029	4,000.49	21.3224	4,000.49	62.141	4,000.49	58.9128	4,000.49	60.4038	4,000.49	58.6583	4,000.49	54.8091	4,000.49	62.0827	4,000.49	52.9768	4,000.49	60.5544	4,000.49	61.4688
4,141.11	89.6411	4,141.11	89.09	4,141.11	88.7681	4,141.11	88.1393	4,141.11	87.6004	4,141.11	85.4725	4,141.11	86.0536	4,141.11	84.0627	4,141.11	84.3589	4,141.11	80.5797	4,141.11	79.2657	4,141.11	78.0014	4,141.11	79.2351	4,141.11	78.642	4,141.11	73.4091	4,141.11	76.5746	4,141.11	73.4064	4,141.11	72.2254	4,141.11	69.5956	4,141.11	67.6014	4,141.11	62.3356	4,141.11	65.1971	4,141.11	55.7979	4,141.11	51.5148	4,141.11	56.4745	4,141.11	61.1543	4,141.11	59.3752	4,141.11	64.353	4,141.11	59.6333	4,141.11	54.9406	4,141.11	58.2755	4,141.11	59.2269	4,141.11	57.6388	4,141.11	58.4039	4,141.11	58.0712	4,141.11	58.6246
4,287.6	89.7879	4,287.6	88.9001	4,287.6	89.0523	4,287.6	88.216	4,287.6	87.8771	4,287.6	85.4569	4,287.6	84.9751	4,287.6	83.7448	4,287.6	83.2377	4,287.6	80.9259	4,287.6	80.0978	4,287.6	78.3304	4,287.6	77.8792	4,287.6	77.0969	4,287.6	74.6828	4,287.6	77.3673	4,287.6	77.38	4,287.6	71.1067	4,287.6	69.0545	4,287.6	62.0358	4,287.6	63.5866	4,287.6	66.8987	4,287.6	61.1851	4,287.6	68.8789	4,287.6	60.7122	4,287.6	64.4359	4,287.6	56.4988	4,287.6	59.7316	4,287.6	61.0802	4,287.6	59.3637	4,287.6	57.5983	4,287.6	48.1477	4,287.6	62.6117	4,287.6	55.5892	4,287.6	57.1151	4,287.6	57.4657
4,438.48	89.5251	4,438.48	89.1114	4,438.48	88.861	4,438.48	88.0019	4,438.48	87.7489	4,438.48	85.3543	4,438.48	85.3453	4,438.48	84.1288	4,438.48	83.161	4,438.48	80.9848	4,438.48	79.5444	4,438.48	76.3254	4,438.48	77.2909	4,438.48	77.4846	4,438.48	78.5006	4,438.48	74.1918	4,438.48	76.8097	4,438.48	63.6247	4,438.48	66.0831	4,438.48	67.2841	4,438.48	62.2763	4,438.48	73.8502	4,438.48	54.5865	4,438.48	71.6053	4,438.48	57.0639	4,438.48	73.0333	4,438.48	58.9128	4,438.48	49.3231	4,438.48	56.8927	4,438.48	57.5916	4,438.48	60.3975	4,438.48	49.896	4,438.48	61.201	4,438.48	59.9552	4,438.48	60.8938	4,438.48	58.4109
4,595.21	90.1059	4,595.21	89.2849	4,595.21	89.29	4,595.21	87.965	4,595.21	87.5499	4,595.21	85.8954	4,595.21	85.3605	4,595.21	83.0983	4,595.21	82.8257	4,595.21	79.1778	4,595.21	79.3336	4,595.21	78.3351	4,595.21	78.6905	4,595.21	78.1859	4,595.21	80.4138	4,595.21	76.3956	4,595.21	77.231	4,595.21	69.7536	4,595.21	61.4213	4,595.21	71.4691	4,595.21	60.2367	4,595.21	72.6508	4,595.21	54.7766	4,595.21	69.8332	4,595.21	48.8861	4,595.21	74.1898	4,595.21	57.3931	4,595.21	62.3775	4,595.21	57.9425	4,595.21	44.465	4,595.21	58.999	4,595.21	51.492	4,595.21	59.6309	4,595.21	56.5508	4,595.21	53.5097	4,595.21	58.0121
4,756.35	89.3437	4,756.35	88.8287	4,756.35	88.4269	4,756.35	87.6838	4,756.35	87.4117	4,756.35	85.7269	4,756.35	85.3354	4,756.35	83.3109	4,756.35	82.7606	4,756.35	79.3612	4,756.35	78.6467	4,756.35	77.3577	4,756.35	78.6858	4,756.35	77.2467	4,756.35	79.282	4,756.35	75.8049	4,756.35	78.9053	4,756.35	65.6691	4,756.35	63.9763	4,756.35	70.9624	4,756.35	57.971	4,756.35	52.8072	4,756.35	60.2161	4,756.35	62.5431	4,756.35	58.5979	4,756.35	62.1934	4,756.35	51.4154	4,756.35	64.8569	4,756.35	51.2568	4,756.35	56.2437	4,756.35	56.4239	4,756.35	54.2053	4,756.35	55.6688	4,756.35	55.5809	4,756.35	60.7498	4,756.35	58.913
4,924.8	89.9387	4,924.8	89.289	4,924.8	89.2761	4,924.8	87.7588	4,924.8	87.5349	4,924.8	86.0446	4,924.8	85.7694	4,924.8	83.9768	4,924.8	83.0649	4,924.8	79.3733	4,924.8	79.5084	4,924.8	75.9081	4,924.8	78.3622	4,924.8	78.8781	4,924.8	75.8411	4,924.8	76.2702	4,924.8	76.0601	4,924.8	68.7889	4,924.8	67.3605	4,924.8	65.6844	4,924.8	43.4331	4,924.8	73.479	4,924.8	56.4207	4,924.8	66.9525	4,924.8	62.8117	4,924.8	66.7466	4,924.8	48.0388	4,924.8	59.3467	4,924.8	60.3912	4,924.8	58.4864	4,924.8	58.2817	4,924.8	57.4026	4,924.8	58.1029	4,924.8	52.2143	4,924.8	59.3886	4,924.8	53.5363
5,097.66	90.2211	5,097.66	89.0541	5,097.66	89.0666	5,097.66	87.905	5,097.66	87.8261	5,097.66	86.296	5,097.66	86.0501	5,097.66	83.8881	5,097.66	83.1554	5,097.66	78.9501	5,097.66	78.2284	5,097.66	76.75	5,097.66	75.6738	5,097.66	76.8309	5,097.66	71.5441	5,097.66	77.3367	5,097.66	73.7219	5,097.66	67.7781	5,097.66	71.146	5,097.66	66.1963	5,097.66	46.8674	5,097.66	75.6399	5,097.66	60.9105	5,097.66	65.5201	5,097.66	57.1236	5,097.66	74.5152	5,097.66	58.6	5,097.66	57.0811	5,097.66	58.1545	5,097.66	59.6757	5,097.66	55.7806	5,097.66	43.5468	5,097.66	59.0862	5,097.66	56.6434	5,097.66	54.6415	5,097.66	57.0054
5,277.83	90.2916	5,277.83	89.6213	5,277.83	89.5794	5,277.83	88.4609	5,277.83	87.9235	5,277.83	86.3443	5,277.83	85.7967	5,277.83	83.8237	5,277.83	83.5721	5,277.83	79.5245	5,277.83	78.4533	5,277.83	76.5853	5,277.83	73.7678	5,277.83	77.9075	5,277.83	75.6997	5,277.83	76.4352	5,277.83	70.1762	5,277.83	67.6618	5,277.83	67.1233	5,277.83	69.2478	5,277.83	58.792	5,277.83	68.2462	5,277.83	61.0853	5,277.83	65.4755	5,277.83	45.8754	5,277.83	69.6754	5,277.83	58.9613	5,277.83	63.0133	5,277.83	52.8291	5,277.83	45.2836	5,277.83	58.1723	5,277.83	60.0874	5,277.83	55.7147	5,277.83	56.3808	5,277.83	58.7168	5,277.83	58.5827
5,463.87	90.3555	5,463.87	89.7133	5,463.87	89.5812	5,463.87	88.3774	5,463.87	88.5063	5,463.87	86.799	5,463.87	86.4959	5,463.87	83.7115	5,463.87	83.028	5,463.87	79.1538	5,463.87	79.6896	5,463.87	74.6431	5,463.87	74.6758	5,463.87	78.2373	5,463.87	74.801	5,463.87	77.8544	5,463.87	70.7447	5,463.87	68.7767	5,463.87	68.9661	5,463.87	52.7104	5,463.87	62.247	5,463.87	67.2537	5,463.87	57.5537	5,463.87	65.169	5,463.87	54.7763	5,463.87	47.9719	5,463.87	54.7982	5,463.87	62.0402	5,463.87	56.4463	5,463.87	48.013	5,463.87	56.295	5,463.87	58.7252	5,463.87	57.4133	5,463.87	56.0598	5,463.87	58.37	5,463.87	54.7302
5,657.23	90.3975	5,657.23	89.6894	5,657.23	89.7845	5,657.23	88.6758	5,657.23	88.4044	5,657.23	86.5098	5,657.23	86.551	5,657.23	84.0174	5,657.23	83.2276	5,657.23	79.1539	5,657.23	78.6362	5,657.23	75.6184	5,657.23	74.2164	5,657.23	77.3055	5,657.23	76.5378	5,657.23	76.4012	5,657.23	74.441	5,657.23	69.0072	5,657.23	64.7205	5,657.23	65.2054	5,657.23	61.6656	5,657.23	69.958	5,657.23	31.0161	5,657.23	67.2179	5,657.23	54.6192	5,657.23	59.0047	5,657.23	47.8959	5,657.23	60.0565	5,657.23	56.894	5,657.23	52.2355	5,657.23	58.1029	5,657.23	60.8112	5,657.23	57.4238	5,657.23	50.448	5,657.23	55.8237	5,657.23	57.7361
5,856.45	89.9379	5,856.45	89.7374	5,856.45	89.4412	5,856.45	88.4113	5,856.45	88.4475	5,856.45	86.172	5,856.45	86.2992	5,856.45	83.74	5,856.45	84.1266	5,856.45	79.7144	5,856.45	78.8649	5,856.45	74.371	5,856.45	72.0353	5,856.45	75.955	5,856.45	73.2101	5,856.45	75.5397	5,856.45	75.3404	5,856.45	72.0364	5,856.45	67.1451	5,856.45	61.8925	5,856.45	63.5276	5,856.45	73.4385	5,856.45	58.7307	5,856.45	69.2089	5,856.45	60.5289	5,856.45	51.6625	5,856.45	55.5561	5,856.45	57.0772	5,856.45	59.0642	5,856.45	50.9814	5,856.45	51.4093	5,856.45	60.1859	5,856.45	61.2274	5,856.45	59.2795	5,856.45	54.0059	5,856.45	57.7051
6,062.99	89.2903	6,062.99	89.385	6,062.99	89.6935	6,062.99	88.4388	6,062.99	88.3262	6,062.99	86.1533	6,062.99	85.997	6,062.99	84.3863	6,062.99	83.8556	6,062.99	82.1778	6,062.99	80.3762	6,062.99	72.9752	6,062.99	72.0807	6,062.99	78.1154	6,062.99	76.3841	6,062.99	75.1671	6,062.99	77.2962	6,062.99	74.0268	6,062.99	67.0572	6,062.99	61.9235	6,062.99	53.5272	6,062.99	58.939	6,062.99	59.8893	6,062.99	73.2278	6,062.99	51.7289	6,062.99	68.3959	6,062.99	59.4682	6,062.99	56.3182	6,062.99	56.4346	6,062.99	59.8726	6,062.99	57.8532	6,062.99	57.7253	6,062.99	56.3193	6,062.99	58.3551	6,062.99	57.3912	6,062.99	55.7981
6,276.86	89.3028	6,276.86	89.3886	6,276.86	89.3954	6,276.86	88.5638	6,276.86	88.0141	6,276.86	86.038	6,276.86	86.073	6,276.86	84.1544	6,276.86	83.0993	6,276.86	81.1472	6,276.86	80.6622	6,276.86	75.6157	6,276.86	76.2228	6,276.86	75.4396	6,276.86	75.7733	6,276.86	76.0023	6,276.86	75.573	6,276.86	65.463	6,276.86	69.1195	6,276.86	68.5555	6,276.86	63.1175	6,276.86	74.6358	6,276.86	53.1069	6,276.86	62.0911	6,276.86	53.0734	6,276.86	69.9574	6,276.86	53.2806	6,276.86	62.5278	6,276.86	54.8155	6,276.86	44.8645	6,276.86	55.4167	6,276.86	61.8178	6,276.86	60.6402	6,276.86	51.1919	6,276.86	53.935	6,276.86	59.3905
6,498.05	88.8291	6,498.05	89.1336	6,498.05	88.7559	6,498.05	88.4881	6,498.05	88.3168	6,498.05	85.6511	6,498.05	85.5106	6,498.05	84.152	6,498.05	83.8191	6,498.05	81.4346	6,498.05	81.1616	6,498.05	75.8131	6,498.05	76.6337	6,498.05	73.8369	6,498.05	76.2649	6,498.05	75.9033	6,498.05	72.5376	6,498.05	71.2728	6,498.05	65.4146	6,498.05	63.632	6,498.05	62.6155	6,498.05	69.4792	6,498.05	58.9257	6,498.05	74.3968	6,498.05	53.1756	6,498.05	53.8195	6,498.05	53.0527	6,498.05	62.4976	6,498.05	60.9924	6,498.05	59.5316	6,498.05	53.6083	6,498.05	51.0971	6,498.05	58.5974	6,498.05	54.9263	6,498.05	56.7803	6,498.05	56.248
6,726.56	88.6615	6,726.56	88.9016	6,726.56	88.8315	6,726.56	88.529	6,726.56	88.0926	6,726.56	85.9469	6,726.56	85.6663	6,726.56	83.8426	6,726.56	83.2417	6,726.56	82.2202	6,726.56	82.1134	6,726.56	76.5951	6,726.56	74.7162	6,726.56	74.9085	6,726.56	74.6953	6,726.56	73.6837	6,726.56	66.4017	6,726.56	69.0316	6,726.56	68.3214	6,726.56	62.8107	6,726.56	54.59	6,726.56	70.1654	6,726.56	58.761	6,726.56	70.5431	6,726.56	49.7407	6,726.56	68.705	6,726.56	53.9204	6,726.56	57.4479	6,726.56	59.0121	6,726.56	54.9891	6,726.56	57.4883	6,726.56	51.4127	6,726.56	55.5904	6,726.56	55.5111	6,726.56	55.8253	6,726.56	54.8822
6,963.87	88.7054	6,963.87	88.9308	6,963.87	88.6456	6,963.87	88.4967	6,963.87	88.0451	6,963.87	85.8752	6,963.87	85.6989	6,963.87	83.6752	6,963.87	83.1208	6,963.87	82.7637	6,963.87	82.3453	6,963.87	77.1794	6,963.87	75.6223	6,963.87	74.0392	6,963.87	72.0935	6,963.87	72.8254	6,963.87	73.1526	6,963.87	68.5885	6,963.87	64.3772	6,963.87	65.0078	6,963.87	58.8582	6,963.87	69.8976	6,963.87	51.8609	6,963.87	71.8355	6,963.87	49.4432	6,963.87	52.2289	6,963.87	54.9979	6,963.87	65.5769	6,963.87	54.732	6,963.87	61.1325	6,963.87	55.339	6,963.87	52.2217	6,963.87	57.0572	6,963.87	58.1666	6,963.87	53.5134	6,963.87	52.8207
7,209.96	88.5328	7,209.96	88.5118	7,209.96	88.0889	7,209.96	88.3372	7,209.96	88.0361	7,209.96	86.2224	7,209.96	85.7799	7,209.96	83.478	7,209.96	83.4185	7,209.96	82.6688	7,209.96	82.5827	7,209.96	77.6025	7,209.96	77.5035	7,209.96	72.4913	7,209.96	71.3415	7,209.96	73.4267	7,209.96	76.0314	7,209.96	70.3851	7,209.96	68.5478	7,209.96	61.7192	7,209.96	54.7535	7,209.96	60.4191	7,209.96	21.8672	7,209.96	75.161	7,209.96	57.7585	7,209.96	70.1716	7,209.96	57.4517	7,209.96	61.0867	7,209.96	56.79	7,209.96	54.0619	7,209.96	54.1742	7,209.96	37.9595	7,209.96	54.4163	7,209.96	59.4843	7,209.96	58.6388	7,209.96	54.3141
7,464.84	87.8296	7,464.84	88.059	7,464.84	87.7015	7,464.84	88.0635	7,464.84	87.537	7,464.84	86.3023	7,464.84	85.2463	7,464.84	83.8748	7,464.84	83.3937	7,464.84	83.5309	7,464.84	81.7106	7,464.84	78.6444	7,464.84	78.7593	7,464.84	74.4628	7,464.84	75.2002	7,464.84	74.2609	7,464.84	77.5403	7,464.84	68.9646	7,464.84	68.4531	7,464.84	63.5263	7,464.84	54.5243	7,464.84	62.9554	7,464.84	46.1541	7,464.84	68.5058	7,464.84	37.7522	7,464.84	60.9272	7,464.84	51.1279	7,464.84	60.0219	7,464.84	59.7585	7,464.84	59.0552	7,464.84	59.4981	7,464.84	45.4091	7,464.84	52.1932	7,464.84	56.7438	7,464.84	54.7313	7,464.84	52.4369
7,727.05	87.9824	7,727.05	87.8925	7,727.05	87.6055	7,727.05	87.3419	7,727.05	86.6288	7,727.05	85.9836	7,727.05	85.0709	7,727.05	83.6134	7,727.05	82.8156	7,727.05	83.2409	7,727.05	81.0902	7,727.05	78.3206	7,727.05	79.3305	7,727.05	74.3423	7,727.05	76.032	7,727.05	73.9318	7,727.05	70.256	7,727.05	71.6601	7,727.05	68.7036	7,727.05	62.5796	7,727.05	50.6554	7,727.05	60.8001	7,727.05	50.6291	7,727.05	66.0736	7,727.05	53.2768	7,727.05	64.799	7,727.05	54.0033	7,727.05	58.1501	7,727.05	59.4029	7,727.05	54.0064	7,727.05	49.8823	7,727.05	47.5116	7,727.05	55.5956	7,727.05	48.1933	7,727.05	56.2476	7,727.05	56.1556
7,999.51	88.4878	7,999.51	87.9811	7,999.51	87.7824	7,999.51	86.7848	7,999.51	86.0735	7,999.51	85.8705	7,999.51	84.793	7,999.51	83.1984	7,999.51	81.4973	7,999.51	82.1866	7,999.51	80.0794	7,999.51	79.2044	7,999.51	77.9386	7,999.51	74.4694	7,999.51	70.8966	7,999.51	73.1368	7,999.51	66.7021	7,999.51	67.3283	7,999.51	64.0286	7,999.51	61.2311	7,999.51	49.0884	7,999.51	60.5672	7,999.51	49.0906	7,999.51	61.4503	7,999.51	50.6865	7,999.51	60.2067	7,999.51	52.5177	7,999.51	65.7162	7,999.51	56.7837	7,999.51	54.0528	7,999.51	54.1013	7,999.51	54.2225	7,999.51	54.117	7,999.51	45.8563	7,999.51	54.1413	7,999.51	54.8105
8,282.23	88.9138	8,282.23	88.005	8,282.23	87.8286	8,282.23	86.0299	8,282.23	85.6343	8,282.23	85.3715	8,282.23	84.3948	8,282.23	81.8239	8,282.23	80.9547	8,282.23	81.4808	8,282.23	80.2691	8,282.23	78.5116	8,282.23	78.21	8,282.23	75.1131	8,282.23	70.3258	8,282.23	70.6984	8,282.23	71.8677	8,282.23	68.3507	8,282.23	63.8957	8,282.23	61.275	8,282.23	54.3032	8,282.23	58.7747	8,282.23	51.6495	8,282.23	63.9299	8,282.23	43.0374	8,282.23	61.9725	8,282.23	54.4404	8,282.23	58.8361	8,282.23	58.7914	8,282.23	56.5614	8,282.23	42.9415	8,282.23	53.4072	8,282.23	53.3783	8,282.23	43.3267	8,282.23	51.1883	8,282.23	54.3483
8,573.73	89.5607	8,573.73	88.3333	8,573.73	88.162	8,573.73	86.0323	8,573.73	85.7511	8,573.73	84.7434	8,573.73	84.3461	8,573.73	81.817	8,573.73	81.0951	8,573.73	81.2072	8,573.73	79.6499	8,573.73	78.366	8,573.73	77.3667	8,573.73	73.8368	8,573.73	71.4972	8,573.73	70.2243	8,573.73	71.2303	8,573.73	65.0331	8,573.73	63.975	8,573.73	62.5063	8,573.73	47.739	8,573.73	62.5851	8,573.73	53.2005	8,573.73	58.4839	8,573.73	40.6176	8,573.73	45.7142	8,573.73	43.8103	8,573.73	64.2576	8,573.73	60.4339	8,573.73	63.1183	8,573.73	52.9451	8,573.73	56.5327	8,573.73	49.3695	8,573.73	47.1632	8,573.73	51.97	8,573.73	51.1486
8,876.95	90.0918	8,876.95	88.7973	8,876.95	88.5693	8,876.95	86.5935	8,876.95	86.3967	8,876.95	84.7436	8,876.95	84.3557	8,876.95	81.9305	8,876.95	81.3135	8,876.95	80.424	8,876.95	79.8024	8,876.95	77.4153	8,876.95	75.7556	8,876.95	72.1092	8,876.95	71.7925	8,876.95	71.868	8,876.95	69.6189	8,876.95	55.9682	8,876.95	60.9786	8,876.95	64.5424	8,876.95	49.6653	8,876.95	62.8957	8,876.95	41.3242	8,876.95	69.7288	8,876.95	49.4885	8,876.95	61.0318	8,876.95	53.6233	8,876.95	61.2321	8,876.95	58.7801	8,876.95	61.3539	8,876.95	51.1961	8,876.95	40.9769	8,876.95	35.9621	8,876.95	46.7384	8,876.95	52.8673	8,876.95	50.8926
9,188.96	90.0961	9,188.96	88.8506	9,188.96	88.3555	9,188.96	86.9925	9,188.96	86.4483	9,188.96	84.9181	9,188.96	84.1408	9,188.96	82.5282	9,188.96	81.4644	9,188.96	80.6193	9,188.96	79.5141	9,188.96	77.1413	9,188.96	76.2642	9,188.96	72.3052	9,188.96	70.3566	9,188.96	68.8701	9,188.96	67.6031	9,188.96	63.5444	9,188.96	61.3428	9,188.96	61.219	9,188.96	56.1902	9,188.96	66.1368	9,188.96	50.2083	9,188.96	62.7633	9,188.96	49.1973	9,188.96	64.5402	9,188.96	51.4227	9,188.96	60.6076	9,188.96	60.2521	9,188.96	64.4607	9,188.96	51.7987	9,188.96	50.1308	9,188.96	44.8508	9,188.96	49.4707	9,188.96	53.1331	9,188.96	48.1595
9,514.16	89.7735	9,514.16	88.7992	9,514.16	88.1505	9,514.16	87.0855	9,514.16	86.3877	9,514.16	84.9604	9,514.16	83.8671	9,514.16	82.7649	9,514.16	81.6482	9,514.16	80.716	9,514.16	79.3122	9,514.16	77.3297	9,514.16	74.7697	9,514.16	71.7127	9,514.16	68.4902	9,514.16	70.4035	9,514.16	63.8461	9,514.16	50.7037	9,514.16	63.6781	9,514.16	65.9479	9,514.16	53.2106	9,514.16	61.6992	9,514.16	43.3856	9,514.16	67.1415	9,514.16	48.6111	9,514.16	58.4982	9,514.16	53.581	9,514.16	65.3551	9,514.16	59.1745	9,514.16	51.755	9,514.16	51.062	9,514.16	54.2059	9,514.16	40.8008	9,514.16	47.86	9,514.16	52.3347	9,514.16	50.5462
9,849.61	89.5235	9,849.61	88.7234	9,849.61	88.2527	9,849.61	87.2087	9,849.61	86.6313	9,849.61	84.7676	9,849.61	83.9759	9,849.61	83.1098	9,849.61	81.9309	9,849.61	80.4985	9,849.61	79.0076	9,849.61	76.2717	9,849.61	75.3552	9,849.61	70.9931	9,849.61	68.5572	9,849.61	69.7178	9,849.61	67.4616	9,849.61	63.7603	9,849.61	56.9696	9,849.61	52.7031	9,849.61	46.311	9,849.61	72.3428	9,849.61	48.6088	9,849.61	59.7538	9,849.61	44.2279	9,849.61	63.7034	9,849.61	50.6563	9,849.61	60.3355	9,849.61	58.5879	9,849.61	59.7387	9,849.61	46.3544	9,849.61	48.7618	9,849.61	47.4536	9,849.61	46.4594	9,849.61	48.9734	9,849.61	51.5709
10,196.8	89.1748	10,196.8	88.5667	10,196.8	88.3249	10,196.8	87.1654	10,196.8	86.6049	10,196.8	84.9961	10,196.8	84.4186	10,196.8	82.968	10,196.8	82.3827	10,196.8	79.9716	10,196.8	78.7159	10,196.8	76.0977	10,196.8	75.6573	10,196.8	68.14	10,196.8	67.6373	10,196.8	70.1634	10,196.8	68.9594	10,196.8	60.0138	10,196.8	56.8081	10,196.8	54.7369	10,196.8	55.8687	10,196.8	72.034	10,196.8	46.3757	10,196.8	56.4745	10,196.8	48.635	10,196.8	61.803	10,196.8	53.3665	10,196.8	66.1695	10,196.8	57.2731	10,196.8	57.9449	10,196.8	47.6077	10,196.8	52.1531	10,196.8	50.6163	10,196.8	43.8873	10,196.8	48.2415	10,196.8	51.2789
10,555.7	88.3843	10,555.7	88.2766	10,555.7	88.0101	10,555.7	87.1101	10,555.7	86.5968	10,555.7	85.3247	10,555.7	84.7932	10,555.7	83.0434	10,555.7	82.5773	10,555.7	80.3965	10,555.7	78.9901	10,555.7	76.157	10,555.7	74.659	10,555.7	66.2226	10,555.7	67.5067	10,555.7	69.2406	10,555.7	67.599	10,555.7	65.5766	10,555.7	62.3586	10,555.7	62.4132	10,555.7	54.7394	10,555.7	58.61	10,555.7	53.2539	10,555.7	47.72	10,555.7	50.3858	10,555.7	64.9052	10,555.7	53.8276	10,555.7	58.6225	10,555.7	58.2762	10,555.7	58.1756	10,555.7	45.7338	10,555.7	51.1211	10,555.7	49.7939	10,555.7	47.2901	10,555.7	52.4946	10,555.7	48.8711
10,927.7	87.7193	10,927.7	88.1071	10,927.7	87.7283	10,927.7	86.9245	10,927.7	86.3556	10,927.7	85.5509	10,927.7	84.8846	10,927.7	83.511	10,927.7	82.3427	10,927.7	80.126	10,927.7	78.1259	10,927.7	74.9456	10,927.7	75.2753	10,927.7	69.4753	10,927.7	69.302	10,927.7	69.7677	10,927.7	62.7778	10,927.7	64.8735	10,927.7	60.9487	10,927.7	59.0969	10,927.7	43.3131	10,927.7	71.6756	10,927.7	50.5855	10,927.7	63.937	10,927.7	50.7744	10,927.7	66.3769	10,927.7	54.9491	10,927.7	53.8284	10,927.7	58.6837	10,927.7	58.3851	10,927.7	49.1768	10,927.7	53.1385	10,927.7	45.6983	10,927.7	49.4028	10,927.7	54.13	10,927.7	50.5678
11,313	87.4865	11,313	88.1335	11,313	87.7714	11,313	86.7821	11,313	86.0515	11,313	85.5124	11,313	85.0279	11,313	83.6254	11,313	82.0541	11,313	79.8633	11,313	77.8181	11,313	75.3142	11,313	74.3789	11,313	70.2371	11,313	66.4917	11,313	71.1133	11,313	68.7085	11,313	67.1357	11,313	64.9854	11,313	66.4868	11,313	50.3097	11,313	69.1044	11,313	32.5205	11,313	65.2366	11,313	49.5257	11,313	55.8288	11,313	51.5202	11,313	64.0795	11,313	56.831	11,313	53.594	11,313	47.3495	11,313	44.519	11,313	51.1072	11,313	51.3534	11,313	47.9919	11,313	52.9454
11,712.9	88.2685	11,712.9	88.4522	11,712.9	88.0845	11,712.9	86.7279	11,712.9	86.0908	11,712.9	85.2237	11,712.9	84.7958	11,712.9	82.9343	11,712.9	81.2136	11,712.9	80.4394	11,712.9	77.6949	11,712.9	75.6545	11,712.9	73.239	11,712.9	71.1914	11,712.9	70.4346	11,712.9	70.9254	11,712.9	66.512	11,712.9	62.2906	11,712.9	60.871	11,712.9	65.6875	11,712.9	54.5398	11,712.9	57.5012	11,712.9	45.8261	11,712.9	62.9521	11,712.9	50.6693	11,712.9	50.3778	11,712.9	49.8084	11,712.9	55.0557	11,712.9	53.1318	11,712.9	59.7329	11,712.9	44.68	11,712.9	47.4362	11,712.9	50.7818	11,712.9	40.6939	11,712.9	50.408	11,712.9	48.4315
12,126	88.7994	12,126	88.7155	12,126	88.4902	12,126	86.7849	12,126	86.2162	12,126	85.0163	12,126	84.3879	12,126	82.7966	12,126	81.1666	12,126	79.6611	12,126	77.9297	12,126	76.3181	12,126	74.3062	12,126	69.804	12,126	70.3756	12,126	70.3248	12,126	65.0917	12,126	63.9725	12,126	61.428	12,126	61.4416	12,126	55.2265	12,126	60.6497	12,126	35.9859	12,126	67.0315	12,126	43.8999	12,126	61.416	12,126	44.6154	12,126	51.0078	12,126	47.4335	12,126	59.704	12,126	47.1231	12,126	55.3399	12,126	50.3566	12,126	48.7846	12,126	49.6227	12,126	51.3227
12,553.7	89.0802	12,553.7	88.7348	12,553.7	88.2865	12,553.7	86.8676	12,553.7	86.2084	12,553.7	85.0403	12,553.7	84.045	12,553.7	82.5833	12,553.7	80.9845	12,553.7	79.2153	12,553.7	78.2326	12,553.7	76.5574	12,553.7	72.4522	12,553.7	70.3611	12,553.7	66.855	12,553.7	67.4723	12,553.7	62.8092	12,553.7	64.166	12,553.7	59.6879	12,553.7	62.3408	12,553.7	53.6878	12,553.7	57.0104	12,553.7	46.4238	12,553.7	64.8298	12,553.7	35.6465	12,553.7	57.9424	12,553.7	48.0895	12,553.7	55.4038	12,553.7	51.9393	12,553.7	58.4795	12,553.7	46.6292	12,553.7	49.1839	12,553.7	48.8404	12,553.7	50.6007	12,553.7	49.6544	12,553.7	49.0527
12,996.1	89.122	12,996.1	88.4451	12,996.1	87.8029	12,996.1	86.7974	12,996.1	85.9484	12,996.1	85.425	12,996.1	84.1473	12,996.1	83.0068	12,996.1	81.3351	12,996.1	79.3946	12,996.1	78.4844	12,996.1	75.7759	12,996.1	72.7495	12,996.1	71.0746	12,996.1	69.7874	12,996.1	66.4963	12,996.1	61.8778	12,996.1	52.8265	12,996.1	60.0343	12,996.1	62.1322	12,996.1	50.9502	12,996.1	48.397	12,996.1	43.3834	12,996.1	70.0377	12,996.1	36.5382	12,996.1	63.6604	12,996.1	44.0371	12,996.1	59.8691	12,996.1	45.8048	12,996.1	59.1573	12,996.1	46.1538	12,996.1	51.6421	12,996.1	51.2135	12,996.1	43.1513	12,996.1	52.7595	12,996.1	43.0298
13,454.6	88.6559	13,454.6	87.6777	13,454.6	86.6183	13,454.6	86.645	13,454.6	85.1188	13,454.6	85.5483	13,454.6	83.8963	13,454.6	83.1461	13,454.6	81.2021	13,454.6	79.9612	13,454.6	78.6518	13,454.6	76.0229	13,454.6	70.8259	13,454.6	70.1992	13,454.6	70.2639	13,454.6	70.0757	13,454.6	67.6474	13,454.6	64.9251	13,454.6	60.9508	13,454.6	53.67	13,454.6	50.028	13,454.6	60.6552	13,454.6	41.8035	13,454.6	65.9131	13,454.6	30.5371	13,454.6	58.0653	13,454.6	36.9769	13,454.6	62.6478	13,454.6	49.4225	13,454.6	56.3158	13,454.6	49.6981	13,454.6	43.7395	13,454.6	51.7774	13,454.6	35.2713	13,454.6	46.5654	13,454.6	46.5141
13,929.2	88.9082	13,929.2	87.6019	13,929.2	86.6086	13,929.2	87.0687	13,929.2	85.4979	13,929.2	85.233	13,929.2	83.4414	13,929.2	82.2879	13,929.2	80.7644	13,929.2	80.3106	13,929.2	78.9304	13,929.2	77.7083	13,929.2	73.6304	13,929.2	73.1949	13,929.2	73.08	13,929.2	69.6696	13,929.2	59.0075	13,929.2	59.3515	13,929.2	62.8158	13,929.2	63.4004	13,929.2	47.307	13,929.2	63.891	13,929.2	49.3992	13,929.2	58.4997	13,929.2	51.3273	13,929.2	43.4908	13,929.2	39.6828	13,929.2	56.2203	13,929.2	50.6455	13,929.2	54.1684	13,929.2	48.2217	13,929.2	51.4836	13,929.2	48.6556	13,929.2	45.4827	13,929.2	49.7631	13,929.2	18.076
14,419.9	88.9517	14,419.9	88.0931	14,419.9	87.0737	14,419.9	87.5314	14,419.9	85.8519	14,419.9	85.0137	14,419.9	83.0649	14,419.9	82.3032	14,419.9	80.6123	14,419.9	79.7359	14,419.9	78.1596	14,419.9	77.9311	14,419.9	74.5103	14,419.9	73.6615	14,419.9	71.6851	14,419.9	68.5776	14,419.9	67.3457	14,419.9	63.9952	14,419.9	62.1742	14,419.9	64.1352	14,419.9	42.8057	14,419.9	62.0662	14,419.9	40.3489	14,419.9	56.9968	14,419.9	43.3342	14,419.9	65.6253	14,419.9	36.9869	14,419.9	51.5617	14,419.9	48.5427	14,419.9	57.549	14,419.9	43.759	14,419.9	43.9888	14,419.9	52.2007	14,419.9	49.1445	14,419.9	51.7879	14,419.9	41.2639
14,928.2	88.8234	14,928.2	88.4584	14,928.2	87.4735	14,928.2	87.6439	14,928.2	85.9831	14,928.2	84.6629	14,928.2	82.6471	14,928.2	82.7121	14,928.2	80.3928	14,928.2	78.7811	14,928.2	76.996	14,928.2	77.2021	14,928.2	74.2073	14,928.2	72.6332	14,928.2	71.2177	14,928.2	66.0128	14,928.2	63.7532	14,928.2	62.6725	14,928.2	60.2566	14,928.2	63.7108	14,928.2	50.1801	14,928.2	65.3679	14,928.2	32.2275	14,928.2	56.7245	14,928.2	43.7235	14,928.2	67.1162	14,928.2	39.2872	14,928.2	57.8663	14,928.2	49.7565	14,928.2	57.8762	14,928.2	44.6993	14,928.2	49.0781	14,928.2	46.5486	14,928.2	48.8819	14,928.2	44.4327	14,928.2	37.2236
15,455.6	88.4175	15,455.6	88.2374	15,455.6	87.2745	15,455.6	87.1721	15,455.6	85.3205	15,455.6	84.3596	15,455.6	82.4745	15,455.6	82.8736	15,455.6	80.883	15,455.6	78.2395	15,455.6	76.9422	15,455.6	76.577	15,455.6	74.8449	15,455.6	71.5405	15,455.6	70.6423	15,455.6	64.2488	15,455.6	62.7817	15,455.6	55.3629	15,455.6	59.6994	15,455.6	61.3315	15,455.6	43.0806	15,455.6	66.6786	15,455.6	40.2309	15,455.6	51.914	15,455.6	44.4132	15,455.6	65.3888	15,455.6	47.9371	15,455.6	58.9405	15,455.6	49.144	15,455.6	54.3598	15,455.6	41.4329	15,455.6	50.6545	15,455.6	45.0322	15,455.6	46.7917	15,455.6	44.7059	15,455.6	46.1694
16,000.5	86.8893	16,000.5	87.4593	16,000.5	86.2908	16,000.5	86.8501	16,000.5	84.7076	16,000.5	84.3481	16,000.5	82.7415	16,000.5	82.9365	16,000.5	80.8942	16,000.5	78.3789	16,000.5	77.3547	16,000.5	76.117	16,000.5	74.1047	16,000.5	69.9145	16,000.5	69.446	16,000.5	63.372	16,000.5	64.6524	16,000.5	62.5077	16,000.5	56.6019	16,000.5	56.2889	16,000.5	39.6247	16,000.5	63.0219	16,000.5	39.8565	16,000.5	55.9872	16,000.5	35.9118	16,000.5	58.8387	16,000.5	49.105	16,000.5	59.9005	16,000.5	52.9435	16,000.5	56.8395	16,000.5	37.6156	16,000.5	53.2809	16,000.5	42.2277	16,000.5	49.301	16,000.5	44.221	16,000.5	44.2811
16,564.5	85.8268	16,564.5	87.0885	16,564.5	86.1734	16,564.5	86.5586	16,564.5	84.2682	16,564.5	84.1545	16,564.5	82.5008	16,564.5	82.5292	16,564.5	80.323	16,564.5	78.9208	16,564.5	78.4746	16,564.5	75.8814	16,564.5	74.1703	16,564.5	69.6737	16,564.5	69.1596	16,564.5	62.5643	16,564.5	62.3455	16,564.5	63.2899	16,564.5	60.9199	16,564.5	46.0051	16,564.5	43.5439	16,564.5	68.365	16,564.5	44.1942	16,564.5	64.3691	16,564.5	38.3293	16,564.5	59.4159	16,564.5	48.4919	16,564.5	63.1982	16,564.5	51.174	16,564.5	55.8493	16,564.5	40.9015	16,564.5	51.6829	16,564.5	38.4499	16,564.5	49.742	16,564.5	36.1899	16,564.5	36.8042
17,148.9	85.9286	17,148.9	87.1698	17,148.9	86.4308	17,148.9	86.073	17,148.9	84.0848	17,148.9	83.8443	17,148.9	82.3963	17,148.9	81.8976	17,148.9	80.0466	17,148.9	78.9216	17,148.9	78.5555	17,148.9	74.4704	17,148.9	74.6799	17,148.9	70.0448	17,148.9	69.1563	17,148.9	58.4172	17,148.9	63.9745	17,148.9	62.0542	17,148.9	57.2845	17,148.9	47.8096	17,148.9	41.2581	17,148.9	66.3063	17,148.9	38.7579	17,148.9	63.4845	17,148.9	43.9178	17,148.9	55.9619	17,148.9	29.1907	17,148.9	60.257	17,148.9	48.4296	17,148.9	47.048	17,148.9	42.8519	17,148.9	49.9792	17,148.9	45.9778	17,148.9	40.6253	17,148.9	39.9697	17,148.9	31.5601
17,752.4	85.6901	17,752.4	86.6155	17,752.4	85.6401	17,752.4	85.6217	17,752.4	83.7728	17,752.4	83.6984	17,752.4	82.5715	17,752.4	81.4126	17,752.4	80.5118	17,752.4	78.1887	17,752.4	77.6568	17,752.4	72.7534	17,752.4	72.5707	17,752.4	70.0717	17,752.4	66.8037	17,752.4	58.3086	17,752.4	60.1094	17,752.4	61.3767	17,752.4	57.1288	17,752.4	57.9718	17,752.4	50.5258	17,752.4	62.9609	17,752.4	32.3453	17,752.4	61.9709	17,752.4	32.335	17,752.4	63.5215	17,752.4	39.9773	17,752.4	55.1555	17,752.4	44.4354	17,752.4	51.6521	17,752.4	42.1026	17,752.4	45.4793	17,752.4	43.7831	17,752.4	37.1945	17,752.4	35.8784	17,752.4	32.0733
18,379.4	85.1399	18,379.4	85.7078	18,379.4	84.5053	18,379.4	84.7985	18,379.4	82.9823	18,379.4	83.1556	18,379.4	82.2505	18,379.4	81.2966	18,379.4	80.4581	18,379.4	77.5735	18,379.4	76.6683	18,379.4	71.4167	18,379.4	71.1866	18,379.4	68.7358	18,379.4	65.6845	18,379.4	53.5027	18,379.4	57.1253	18,379.4	57.5763	18,379.4	55.4359	18,379.4	60.3404	18,379.4	52.8877	18,379.4	59.3122	18,379.4	42.5384	18,379.4	61.6303	18,379.4	41.9875	18,379.4	61.2006	18,379.4	45.0101	18,379.4	53.7106	18,379.4	35.0542	18,379.4	54.2741	18,379.4	36.9035	18,379.4	35.5394	18,379.4	42.2778	18,379.4	41.9438	18,379.4	39.1142	18,379.4	40.9038
19,026.9	84.7748	19,026.9	85.021	19,026.9	84.0019	19,026.9	84.0129	19,026.9	82.4985	19,026.9	82.5736	19,026.9	81.8551	19,026.9	81.1407	19,026.9	80.002	19,026.9	76.1207	19,026.9	75.5369	19,026.9	71.1874	19,026.9	68.9292	19,026.9	67.5303	19,026.9	62.4013	19,026.9	51.7155	19,026.9	57.5321	19,026.9	60.5896	19,026.9	58.227	19,026.9	60.8826	19,026.9	54.2948	19,026.9	62.0328	19,026.9	25.7457	19,026.9	63.812	19,026.9	33.3545	19,026.9	53.7891	19,026.9	36.848	19,026.9	59.3816	19,026.9	45.9384	19,026.9	53.9824	19,026.9	42.5597	19,026.9	44.2864	19,026.9	42.4954	19,026.9	49.0635	19,026.9	38.0005	19,026.9	34.8418
19,697.8	83.8228	19,697.8	84.33	19,697.8	83.24	19,697.8	83.4304	19,697.8	82.2984	19,697.8	81.8432	19,697.8	81.5079	19,697.8	80.6482	19,697.8	79.3514	19,697.8	74.8779	19,697.8	74.1476	19,697.8	70.7164	19,697.8	67.9339	19,697.8	66.4543	19,697.8	62.7695	19,697.8	50.2389	19,697.8	57.2979	19,697.8	58.7746	19,697.8	58.0017	19,697.8	56.6131	19,697.8	54.9837	19,697.8	58.0181	19,697.8	34.0251	19,697.8	62.3591	19,697.8	39.8531	19,697.8	47.772	19,697.8	42.195	19,697.8	57.7479	19,697.8	37.5111	19,697.8	45.0614	19,697.8	37.3237	19,697.8	50.8853	19,697.8	35.4045	19,697.8	43.7515	19,697.8	38.8769	19,697.8	36.0592
19,999.5	83.4816	19,999.5	84.0849	19,999.5	82.9641	19,999.5	83.2379	19,999.5	82.1912	19,999.5	81.3297	19,999.5	81.8679	19,999.5	80.3703	19,999.5	79.1733	19,999.5	76.0852	19,999.5	73.4392	19,999.5	71.6927	19,999.5	67.1658	19,999.5	62.4513	19,999.5	62.9926	19,999.5	25.3453	19,999.5	53.9762	19,999.5	54.3713	19,999.5	55.7523	19,999.5	63.4507	19,999.5	57.5064	19,999.5	67.9569	19,999.5	46.4794	19,999.5	62.3031	19,999.5	48.5282	19,999.5	57.4358	19,999.5	48.093	19,999.5	51.1895	19,999.5	46.4747	19,999.5	53.844	19,999.5	46.7462	19,999.5	33.7291	19,999.5	49.1846	19,999.5	48.9686	19,999.5	43.9975	19,999.5	47.5138
