"SPL Vertical"
"On-Axis"		"10°"		"-10°"		"20°"		"-20°"		"30°"		"-30°"		"40°"		"-40°"		"50°"		"-50°"		"60°"		"-60°"		"70°"		"-70°"		"80°"		"-80°"		"90°"		"-90°"		"100°"		"-100°"		"110°"		"-110°"		"120°"		"-120°"		"130°"		"-130°"		"140°"		"-140°"		"150°"		"-150°"		"160°"		"-160°"		"170°"		"-170°"		"180°"
"Frequency / Hz"	"Sound Pressure Level / dB (re 20 µPa/V)  [2.83V at 1m]"	"Frequency / Hz"	"Sound Pressure Level / dB (re 20 µPa/V)  [2.83V at 1m]"	"Frequency / Hz"	"Sound Pressure Level / dB (re 20 µPa/V)  [2.83V at 1m]"	"Frequency / Hz"	"Sound Pressure Level / dB (re 20 µPa/V)  [2.83V at 1m]"	"Frequency / Hz"	"Sound Pressure Level / dB (re 20 µPa/V)  [2.83V at 1m]"	"Frequency / Hz"	"Sound Pressure Level / dB (re 20 µPa/V)  [2.83V at 1m]"	"Frequency / Hz"	"Sound Pressure Level / dB (re 20 µPa/V)  [2.83V at 1m]"	"Frequency / Hz"	"Sound Pressure Level / dB (re 20 µPa/V)  [2.83V at 1m]"	"Frequency / Hz"	"Sound Pressure Level / dB (re 20 µPa/V)  [2.83V at 1m]"	"Frequency / Hz"	"Sound Pressure Level / dB (re 20 µPa/V)  [2.83V at 1m]"	"Frequency / Hz"	"Sound Pressure Level / dB (re 20 µPa/V)  [2.83V at 1m]"	"Frequency / Hz"	"Sound Pressure Level / dB (re 20 µPa/V)  [2.83V at 1m]"	"Frequency / Hz"	"Sound Pressure Level / dB (re 20 µPa/V)  [2.83V at 1m]"	"Frequency / Hz"	"Sound Pressure Level / dB (re 20 µPa/V)  [2.83V at 1m]"	"Frequency / Hz"	"Sound Pressure Level / dB (re 20 µPa/V)  [2.83V at 1m]"	"Frequency / Hz"	"Sound Pressure Level / dB (re 20 µPa/V)  [2.83V at 1m]"	"Frequency / Hz"	"Sound Pressure Level / dB (re 20 µPa/V)  [2.83V at 1m]"	"Frequency / Hz"	"Sound Pressure Level / dB (re 20 µPa/V)  [2.83V at 1m]"	"Frequency / Hz"	"Sound Pressure Level / dB (re 20 µPa/V)  [2.83V at 1m]"	"Frequency / Hz"	"Sound Pressure Level / dB (re 20 µPa/V)  [2.83V at 1m]"	"Frequency / Hz"	"Sound Pressure Level / dB (re 20 µPa/V)  [2.83V at 1m]"	"Frequency / Hz"	"Sound Pressure Level / dB (re 20 µPa/V)  [2.83V at 1m]"	"Frequency / Hz"	"Sound Pressure Level / dB (re 20 µPa/V)  [2.83V at 1m]"	"Frequency / Hz"	"Sound Pressure Level / dB (re 20 µPa/V)  [2.83V at 1m]"	"Frequency / Hz"	"Sound Pressure Level / dB (re 20 µPa/V)  [2.83V at 1m]"	"Frequency / Hz"	"Sound Pressure Level / dB (re 20 µPa/V)  [2.83V at 1m]"	"Frequency / Hz"	"Sound Pressure Level / dB (re 20 µPa/V)  [2.83V at 1m]"	"Frequency / Hz"	"Sound Pressure Level / dB (re 20 µPa/V)  [2.83V at 1m]"	"Frequency / Hz"	"Sound Pressure Level / dB (re 20 µPa/V)  [2.83V at 1m]"	"Frequency / Hz"	"Sound Pressure Level / dB (re 20 µPa/V)  [2.83V at 1m]"	"Frequency / Hz"	"Sound Pressure Level / dB (re 20 µPa/V)  [2.83V at 1m]"	"Frequency / Hz"	"Sound Pressure Level / dB (re 20 µPa/V)  [2.83V at 1m]"	"Frequency / Hz"	"Sound Pressure Level / dB (re 20 µPa/V)  [2.83V at 1m]"	"Frequency / Hz"	"Sound Pressure Level / dB (re 20 µPa/V)  [2.83V at 1m]"	"Frequency / Hz"	"Sound Pressure Level / dB (re 20 µPa/V)  [2.83V at 1m]"	"Frequency / Hz"	"Sound Pressure Level / dB (re 20 µPa/V)  [2.83V at 1m]"
20.5078	56.6092	20.5078	56.5409	20.5078	56.5323	20.5078	56.3289	20.5078	56.3083	20.5078	55.9749	20.5078	55.9358	20.5078	55.483	20.5078	55.4187	20.5078	54.8662	20.5078	54.7747	20.5078	54.1586	20.5078	54.0538	20.5078	53.437	20.5078	53.3673	20.5078	52.8452	20.5078	52.9069	20.5078	52.5844	20.5078	52.889	20.5078	52.811	20.5078	53.395	20.5078	53.5015	20.5078	54.2859	20.5078	54.4699	20.5078	55.3268	20.5078	55.5098	20.5078	56.3315	20.5078	56.4788	20.5078	57.1944	20.5078	57.2991	20.5078	57.865	20.5078	57.9318	20.5078	58.3217	20.5078	58.358	20.5078	58.5565	20.5078	58.5679
21.9727	55.5895	21.9727	55.4679	21.9727	55.4924	21.9727	55.1266	21.9727	55.1707	21.9727	54.5589	21.9727	54.6135	21.9727	53.7578	21.9727	53.8124	21.9727	52.7332	21.9727	52.7848	21.9727	51.5634	21.9727	51.6438	21.9727	50.514	21.9727	50.7406	21.9727	50.1352	21.9727	50.6869	21.9727	50.8662	21.9727	51.7515	21.9727	52.4165	21.9727	53.4489	21.9727	54.1926	21.9727	55.2161	21.9727	55.8531	21.9727	56.7919	21.9727	57.2829	21.9727	58.1013	21.9727	58.4584	21.9727	59.1358	21.9727	59.3828	21.9727	59.9045	21.9727	60.0638	21.9727	60.4183	21.9727	60.507	21.9727	60.6864	21.9727	60.7148
23.4375	57.8787	23.4375	57.7831	23.4375	57.8162	23.4375	57.5323	23.4375	57.5964	23.4375	57.1342	23.4375	57.2261	23.4375	56.609	23.4375	56.7271	23.4375	56.0035	23.4375	56.1534	23.4375	55.4152	23.4375	55.6188	23.4375	55.0125	23.4375	55.3125	23.4375	55.0013	23.4375	55.4422	23.4375	55.4974	23.4375	56.0831	23.4375	56.42	23.4375	57.1021	23.4375	57.5639	23.4375	58.2762	23.4375	58.7403	23.4375	59.427	23.4375	59.8309	23.4375	60.452	23.4375	60.7745	23.4375	61.3017	23.4375	61.5415	23.4375	61.9543	23.4375	62.1177	23.4375	62.4012	23.4375	62.4957	23.4375	62.6399	23.4375	62.6708
24.9023	58.0878	24.9023	57.9615	24.9023	58.0089	24.9023	57.6351	24.9023	57.7181	24.9023	57.1163	24.9023	57.2089	24.9023	56.4269	24.9023	56.4838	24.9023	55.6301	24.9023	55.5814	24.9023	54.8804	24.9023	54.6429	24.9023	54.4665	24.9023	54.0109	24.9023	54.7041	24.9023	54.16	24.9023	55.6399	24.9023	55.2186	24.9023	56.9941	24.9023	56.7868	24.9023	58.4485	24.9023	58.4255	24.9023	59.8138	24.9023	59.911	24.9023	61.0078	24.9023	61.1668	24.9023	62.0006	24.9023	62.1762	24.9023	62.7834	24.9023	62.9423	24.9023	63.3538	24.9023	63.4723	24.9023	63.7104	24.9023	63.7734	24.9023	63.8513
26.3672	59.54	26.3672	59.5201	26.3672	59.4283	26.3672	59.3746	26.3672	59.189	26.3672	59.1213	26.3672	58.8414	26.3672	58.7953	26.3672	58.4307	26.3672	58.4597	26.3672	58.0453	26.3672	58.2133	26.3672	57.8255	26.3672	58.1814	26.3672	57.9323	26.3672	58.4676	26.3672	58.4542	26.3672	59.0901	26.3672	59.3343	26.3672	59.9667	26.3672	60.4145	26.3672	60.969	26.3672	61.5356	26.3672	61.9817	26.3672	62.5877	26.3672	62.9251	26.3672	63.5084	26.3672	63.751	26.3672	64.2657	26.3672	64.4313	26.3672	64.8442	26.3672	64.9494	26.3672	65.2372	26.3672	65.2949	26.3672	65.4425	26.3672	65.4608
27.832	60.1978	27.832	60.13	27.832	60.1355	27.832	59.9362	27.832	59.9489	27.832	59.6322	27.832	59.6577	27.832	59.2526	27.832	59.3048	27.832	58.863	27.832	58.9698	27.832	58.5707	27.832	58.7767	27.832	58.5151	27.832	58.8685	27.832	58.8121	27.832	59.3328	27.832	59.4767	27.832	60.1355	27.832	60.4094	27.832	61.1448	27.832	61.4653	27.832	62.2136	27.832	62.5212	27.832	63.2322	27.832	63.4963	27.832	64.1339	27.832	64.3437	27.832	64.8821	27.832	65.0376	27.832	65.4577	27.832	65.5633	27.832	65.8512	27.832	65.912	27.832	66.0583	27.832	66.0781
29.2969	61.8512	29.2969	61.789	29.2969	61.821	29.2969	61.6417	29.2969	61.7032	29.2969	61.43	29.2969	61.5169	29.2969	61.1921	29.2969	61.3007	29.2969	60.9879	29.2969	61.1186	29.2969	60.8977	29.2969	61.0588	29.2969	61.0055	29.2969	61.213	29.2969	61.3648	29.2969	61.6351	29.2969	61.9685	29.2969	62.3067	29.2969	62.7518	29.2969	63.1469	29.2969	63.6248	29.2969	64.0535	29.2969	64.5044	29.2969	64.9382	29.2969	65.3282	29.2969	65.7389	29.2969	66.054	29.2969	66.4159	29.2969	66.6541	29.2969	66.9455	29.2969	67.1104	29.2969	67.3145	29.2969	67.4109	29.2969	67.5159	29.2969	67.5476
30.7617	63.9746	30.7617	63.9173	30.7617	63.948	30.7617	63.7825	30.7617	63.8397	30.7617	63.5864	30.7617	63.6616	30.7617	63.3571	30.7617	63.4393	30.7617	63.1383	30.7617	63.2167	30.7617	62.9896	30.7617	63.0584	30.7617	62.9788	30.7617	63.0424	30.7617	63.1617	30.7617	63.236	30.7617	63.5573	30.7617	63.6624	30.7617	64.1364	30.7617	64.2857	30.7617	64.8345	30.7617	65.0276	30.7617	65.5772	30.7617	65.8008	30.7617	66.2992	30.7617	66.5326	30.7617	66.9508	30.7617	67.1713	30.7617	67.4969	30.7617	67.6833	30.7617	67.9137	30.7617	68.0484	30.7617	68.1852	30.7617	68.2557	30.7617	68.301
32.2266	63.9273	32.2266	63.9132	32.2266	63.8756	32.2266	63.8391	32.2266	63.7649	32.2266	63.7227	32.2266	63.6162	32.2266	63.5957	32.2266	63.4682	32.2266	63.5041	32.2266	63.3785	32.2266	63.5052	32.2266	63.4174	32.2266	63.6551	32.2266	63.6479	32.2266	63.9893	32.2266	64.097	32.2266	64.5063	32.2266	64.7394	32.2266	65.167	32.2266	65.5089	32.2266	65.9102	32.2266	66.326	32.2266	66.6728	32.2266	67.1206	32.2266	67.4012	32.2266	67.8402	32.2266	68.0546	32.2266	68.4494	32.2266	68.6038	32.2266	68.9256	32.2266	69.0281	32.2266	69.2549	32.2266	69.313	32.2266	69.4301	32.2266	69.4489
33.6914	66.521	33.6914	66.4825	33.6914	66.5145	33.6914	66.4038	33.6914	66.4667	33.6914	66.2978	33.6914	66.3902	33.6914	66.1863	33.6914	66.3073	33.6914	66.1003	33.6914	66.2508	33.6914	66.0772	33.6914	66.2612	33.6914	66.1553	33.6914	66.3792	33.6914	66.3632	33.6914	66.6332	33.6914	66.7094	33.6914	67.0271	33.6914	67.1782	33.6914	67.5369	33.6914	67.733	33.6914	68.118	33.6914	68.328	33.6914	68.7182	33.6914	68.9172	33.6914	69.289	33.6914	69.4607	33.6914	69.7908	33.6914	69.9268	33.6914	70.1944	33.6914	70.2915	33.6914	70.4798	33.6914	70.5376	33.6914	70.6348	33.6914	70.654
35.1562	67.7933	35.1562	67.759	35.1562	67.7852	35.1562	67.6867	35.1562	67.7379	35.1562	67.588	35.1562	67.6626	35.1562	67.4824	35.1562	67.5793	35.1562	67.3971	35.1562	67.5172	35.1562	67.3656	35.1562	67.5127	35.1562	67.4227	35.1562	67.6035	35.1562	67.5957	35.1562	67.8177	35.1562	67.8957	35.1562	68.1628	35.1562	68.3119	35.1562	68.6208	35.1562	68.8143	35.1562	69.1532	35.1562	69.3617	35.1562	69.7117	35.1562	69.9108	35.1562	70.2492	35.1562	70.4223	35.1562	70.7263	35.1562	70.8642	35.1562	71.1127	35.1562	71.2116	35.1562	71.3874	35.1562	71.4465	35.1562	71.5376	35.1562	71.5572
36.6211	69.0569	36.6211	69.0259	36.6211	69.0522	36.6211	68.963	36.6211	69.0147	36.6211	68.8784	36.6211	68.9544	36.6211	68.7891	36.6211	68.8887	36.6211	68.7188	36.6211	68.8429	36.6211	68.6959	36.6211	68.8479	36.6211	68.7499	36.6211	68.9354	36.6211	68.9049	36.6211	69.1296	36.6211	69.1713	36.6211	69.438	36.6211	69.5422	36.6211	69.8474	36.6211	69.9935	36.6211	70.326	36.6211	70.4901	36.6211	70.8324	36.6211	70.9933	36.6211	71.324	36.6211	71.4664	36.6211	71.7635	36.6211	71.8783	36.6211	72.1213	36.6211	72.2043	36.6211	72.3764	36.6211	72.4262	36.6211	72.5154	36.6211	72.5319
38.0859	70.1569	38.0859	70.1245	38.0859	70.1599	38.0859	70.0659	38.0859	70.1359	38.0859	69.9906	38.0859	70.0935	38.0859	69.9136	38.0859	70.0479	38.0859	69.8556	38.0859	70.0203	38.0859	69.8415	38.0859	70.037	38.0859	69.8965	38.0859	70.1243	38.0859	70.0412	38.0859	70.3028	38.0859	70.2852	38.0859	70.5799	38.0859	70.6232	38.0859	70.946	38.0859	71.0351	38.0859	71.3757	38.0859	71.4907	38.0859	71.8335	38.0859	71.9551	38.0859	72.2815	38.0859	72.3945	38.0859	72.6851	38.0859	72.7792	38.0859	73.0156	38.0859	73.0852	38.0859	73.2521	38.0859	73.2945	38.0859	73.3808	38.0859	73.395
39.5508	71.2851	39.5508	71.2578	39.5508	71.288	39.5508	71.2091	39.5508	71.2684	39.5508	71.1474	39.5508	71.2337	39.5508	71.0858	39.5508	71.1966	39.5508	71.042	39.5508	71.1755	39.5508	71.0367	39.5508	71.1925	39.5508	71.0912	39.5508	71.2704	39.5508	71.2227	39.5508	71.4273	39.5508	71.4398	39.5508	71.6711	39.5508	71.7393	39.5508	71.9952	39.5508	72.1054	39.5508	72.3793	39.5508	72.5127	39.5508	72.793	39.5508	72.931	39.5508	73.2022	39.5508	73.3296	39.5508	73.5742	39.5508	73.6805	39.5508	73.8817	39.5508	73.9605	39.5508	74.1036	39.5508	74.1518	39.5508	74.2262	39.5508	74.2423
41.0156	72.3183	41.0156	72.2927	41.0156	72.3238	41.0156	72.2498	41.0156	72.311	41.0156	72.1967	41.0156	72.2864	41.0156	72.145	41.0156	72.2613	41.0156	72.11	41.0156	72.2515	41.0156	72.1099	41.0156	72.2759	41.0156	72.1628	41.0156	72.354	41.0156	72.284	41.0156	72.5012	41.0156	72.4816	41.0156	72.7245	41.0156	72.7533	41.0156	73.0189	41.0156	73.0864	41.0156	73.3674	41.0156	73.459	41.0156	73.7437	41.0156	73.8441	41.0156	74.1175	41.0156	74.2135	41.0156	74.459	41.0156	74.5408	41.0156	74.742	41.0156	74.8036	41.0156	74.9464	41.0156	74.9844	41.0156	75.0585	41.0156	75.0713
42.4805	73.3064	42.4805	73.2877	42.4805	73.3114	42.4805	73.2575	42.4805	73.3042	42.4805	73.2222	42.4805	73.2906	42.4805	73.1917	42.4805	73.2806	42.4805	73.1792	42.4805	73.2878	42.4805	73.1995	42.4805	73.3281	42.4805	73.2676	42.4805	73.4176	42.4805	73.3955	42.4805	73.5687	42.4805	73.5892	42.4805	73.7866	42.4805	73.8466	42.4805	74.0664	42.4805	74.1566	42.4805	74.3932	42.4805	74.5005	42.4805	74.7439	42.4805	74.8549	42.4805	75.0918	42.4805	75.1949	42.4805	75.4097	42.4805	75.4963	42.4805	75.6738	42.4805	75.7385	42.4805	75.8652	42.4805	75.905	42.4805	75.9709	42.4805	75.9843
43.9453	74.1837	43.9453	74.1635	43.9453	74.193	43.9453	74.1346	43.9453	74.1929	43.9453	74.1023	43.9453	74.1883	43.9453	74.0755	43.9453	74.1877	43.9453	74.0653	43.9453	74.2027	43.9453	74.0848	43.9453	74.2468	43.9453	74.1469	43.9453	74.3334	43.9453	74.2625	43.9453	74.4733	43.9453	74.4373	43.9453	74.6711	43.9453	74.67	43.9453	74.9233	43.9453	74.9517	43.9453	75.2174	43.9453	75.2661	43.9453	75.5338	43.9453	75.5925	43.9453	75.8486	43.9453	75.9079	43.9453	76.1373	43.9453	76.1896	43.9453	76.3775	43.9453	76.4177	43.9453	76.5511	43.9453	76.5762	43.9453	76.6455	43.9453	76.654
45.4102	75.0724	45.4102	75.0556	45.4102	75.0833	45.4102	75.0345	45.4102	75.0896	45.4102	75.0138	45.4102	75.0954	45.4102	75.0005	45.4102	75.1079	45.4102	75.0038	45.4102	75.1366	45.4102	75.0345	45.4102	75.1924	45.4102	75.1028	45.4102	75.286	45.4102	75.2172	45.4102	75.4254	45.4102	75.3824	45.4102	75.6141	45.4102	75.5973	45.4102	75.8484	45.4102	75.8544	45.4102	76.1178	45.4102	76.1403	45.4102	76.4053	45.4102	76.437	45.4102	76.6905	45.4102	76.7245	45.4102	76.9515	45.4102	76.9825	45.4102	77.1683	45.4102	77.1925	45.4102	77.3244	45.4102	77.3397	45.4102	77.4081	45.4102	77.4133
46.875	75.9024	46.875	75.8762	46.875	75.9252	46.875	75.8482	46.875	75.9452	46.875	75.8223	46.875	75.9657	46.875	75.8049	46.875	75.992	46.875	75.8039	46.875	76.0314	46.875	75.8283	46.875	76.0924	46.875	75.8871	46.875	76.1831	46.875	75.9878	46.875	76.3102	46.875	76.1346	46.875	76.4764	46.875	76.3269	46.875	76.6794	46.875	76.5586	46.875	76.9112	46.875	76.8182	46.875	77.1582	46.875	77.0898	46.875	77.4035	46.875	77.3551	46.875	77.6282	46.875	77.5954	46.875	77.8143	46.875	77.7935	46.875	77.9465	46.875	77.935	46.875	78.0138	46.875	78.0102
48.3398	76.4461	48.3398	76.4237	48.3398	76.4661	48.3398	76.4005	48.3398	76.4841	48.3398	76.3805	48.3398	76.5028	48.3398	76.3695	48.3398	76.527	48.3398	76.3748	48.3398	76.5632	48.3398	76.4045	48.3398	76.6193	48.3398	76.4667	48.3398	76.7031	48.3398	76.568	48.3398	76.821	48.3398	76.7118	48.3398	76.9763	48.3398	76.8975	48.3398	77.1675	48.3398	77.1191	48.3398	77.3878	48.3398	77.3658	48.3398	77.6248	48.3398	77.6227	48.3398	77.8623	48.3398	77.8727	48.3398	78.0823	48.3398	78.0981	48.3398	78.2669	48.3398	78.2823	48.3398	78.4008	48.3398	78.4117	48.3398	78.4729	48.3398	78.4768
51.2695	77.8928	51.2695	77.8804	51.2695	77.9079	51.2695	77.8718	51.2695	77.9258	51.2695	77.8697	51.2695	77.9482	51.2695	77.8779	51.2695	77.9782	51.2695	77.901	51.2695	78.0203	51.2695	77.9443	51.2695	78.0795	51.2695	78.0125	51.2695	78.1611	51.2695	78.1097	51.2695	78.2694	51.2695	78.2379	51.2695	78.4064	51.2695	78.3961	51.2695	78.5709	51.2695	78.5803	51.2695	78.7578	51.2695	78.7825	51.2695	78.9576	51.2695	78.992	51.2695	79.1577	51.2695	79.1955	51.2695	79.3435	51.2695	79.3789	51.2695	79.5004	51.2695	79.5288	51.2695	79.6153	51.2695	79.6336	51.2695	79.6786	51.2695	79.6849
52.7344	78.5079	52.7344	78.5005	52.7344	78.5203	52.7344	78.4988	52.7344	78.5379	52.7344	78.5046	52.7344	78.5627	52.7344	78.5208	52.7344	78.5972	52.7344	78.551	52.7344	78.6452	52.7344	78.5993	52.7344	78.7108	52.7344	78.6696	52.7344	78.7981	52.7344	78.765	52.7344	78.9099	52.7344	78.8872	52.7344	79.0473	52.7344	79.0355	52.7344	79.2082	52.7344	79.2064	52.7344	79.3874	52.7344	79.3933	52.7344	79.5759	52.7344	79.5867	52.7344	79.7623	52.7344	79.7751	52.7344	79.9335	52.7344	79.9458	52.7344	80.0764	52.7344	80.0864	52.7344	80.1796	52.7344	80.186	52.7344	80.2346	52.7344	80.2368
54.1992	79.0581	54.1992	79.046	54.1992	79.0766	54.1992	79.0412	54.1992	79.1019	54.1992	79.045	54.1992	79.1349	54.1992	79.0598	54.1992	79.1777	54.1992	79.0884	54.1992	79.2327	54.1992	79.134	54.1992	79.3027	54.1992	79.1998	54.1992	79.3904	54.1992	79.2882	54.1992	79.4977	54.1992	79.4005	54.1992	79.6249	54.1992	79.5362	54.1992	79.7703	54.1992	79.6922	54.1992	79.9293	54.1992	79.8629	54.1992	80.0946	54.1992	80.0402	54.1992	80.2567	54.1992	80.2137	54.1992	80.4044	54.1992	80.372	54.1992	80.5264	54.1992	80.5039	54.1992	80.6128	54.1992	80.5995	54.1992	80.6558	54.1992	80.6515
55.6641	79.5743	55.6641	79.56	55.6641	79.5956	55.6641	79.5535	55.6641	79.624	55.6641	79.5561	55.6641	79.66	55.6641	79.5697	55.6641	79.705	55.6641	79.5965	55.6641	79.7606	55.6641	79.639	55.6641	79.8288	55.6641	79.6999	55.6641	79.9115	55.6641	79.7811	55.6641	80.0102	55.6641	79.8835	55.6641	80.125	55.6641	80.0067	55.6641	80.2546	55.6641	80.1481	55.6641	80.3954	55.6641	80.3029	55.6641	80.5412	55.6641	80.4638	55.6641	80.6839	55.6641	80.6218	55.6641	80.8139	55.6641	80.7665	55.6641	80.9211	55.6641	80.8879	55.6641	80.9963	55.6641	80.9767	55.6641	81.0326	55.6641	81.0261
58.5938	80.4766	58.5938	80.4642	58.5938	80.4976	58.5938	80.4608	58.5938	80.5268	58.5938	80.4672	58.5938	80.5643	58.5938	80.4845	58.5938	80.6104	58.5938	80.5139	58.5938	80.6658	58.5938	80.5567	58.5938	80.731	58.5938	80.6142	58.5938	80.8069	58.5938	80.6873	58.5938	80.894	58.5938	80.7764	58.5938	80.9922	58.5938	80.8809	58.5938	81.1002	58.5938	80.9989	58.5938	81.2155	58.5938	81.1267	58.5938	81.3337	58.5938	81.2588	58.5938	81.4488	58.5938	81.3884	58.5938	81.5534	58.5938	81.5072	58.5938	81.6395	58.5938	81.6071	58.5938	81.6997	58.5938	81.6806	58.5938	81.7283	58.5938	81.722
60.0586	80.9056	60.0586	80.8948	60.0586	80.9255	60.0586	80.8935	60.0586	80.9543	60.0586	80.9022	60.0586	80.9916	60.0586	80.9216	60.0586	81.0374	60.0586	80.9525	60.0586	81.092	60.0586	80.9955	60.0586	81.1555	60.0586	81.0516	60.0586	81.2281	60.0586	81.1211	60.0586	81.31	60.0586	81.2042	60.0586	81.4009	60.0586	81.3001	60.0586	81.4996	60.0586	81.4073	60.0586	81.6039	60.0586	81.5225	60.0586	81.71	60.0586	81.6411	60.0586	81.8129	60.0586	81.7571	60.0586	81.9062	60.0586	81.8635	60.0586	81.9829	60.0586	81.9529	60.0586	82.0365	60.0586	82.0188	60.0586	82.0619	60.0586	82.056
62.9883	81.6898	62.9883	81.6829	62.9883	81.7066	62.9883	81.6859	62.9883	81.7327	62.9883	81.6991	62.9883	81.7678	62.9883	81.7222	62.9883	81.8112	62.9883	81.7552	62.9883	81.8625	62.9883	81.7981	62.9883	81.921	62.9883	81.8506	62.9883	81.9861	62.9883	81.9125	62.9883	82.0575	62.9883	81.9834	62.9883	82.1343	62.9883	82.0626	62.9883	82.2155	62.9883	82.1488	62.9883	82.2995	62.9883	82.2399	62.9883	82.3837	62.9883	82.3325	62.9883	82.4645	62.9883	82.4225	62.9883	82.5373	62.9883	82.5049	62.9883	82.597	62.9883	82.5741	62.9883	82.6387	62.9883	82.6251	62.9883	82.6584	62.9883	82.6539
64.4531	82.0537	64.4531	82.0451	64.4531	82.0724	64.4531	82.0466	64.4531	82.1006	64.4531	82.0582	64.4531	82.1377	64.4531	82.0796	64.4531	82.183	64.4531	82.1105	64.4531	82.2354	64.4531	82.1504	64.4531	82.294	64.4531	82.1989	64.4531	82.3578	64.4531	82.2555	64.4531	82.4261	64.4531	82.3197	64.4531	82.4978	64.4531	82.391	64.4531	82.5719	64.4531	82.4682	64.4531	82.6468	64.4531	82.5497	64.4531	82.7203	64.4531	82.6329	64.4531	82.7894	64.4531	82.7143	64.4531	82.8503	64.4531	82.7898	64.4531	82.8989	64.4531	82.8544	64.4531	82.9309	64.4531	82.9038	64.4531	82.9432	64.4531	82.9341
67.3828	82.6701	67.3828	82.657	67.3828	82.6942	67.3828	82.6551	67.3828	82.7287	67.3828	82.6641	67.3828	82.7724	67.3828	82.6834	67.3828	82.824	67.3828	82.7122	67.3828	82.8818	67.3828	82.7495	67.3828	82.944	67.3828	82.7943	67.3828	83.009	67.3828	82.8457	67.3828	83.075	67.3828	82.9029	67.3828	83.1407	67.3828	82.9652	67.3828	83.2047	67.3828	83.0316	67.3828	83.2658	67.3828	83.1011	67.3828	83.3224	67.3828	83.1719	67.3828	83.3727	67.3828	83.2418	67.3828	83.4143	67.3828	83.3075	67.3828	83.4446	67.3828	83.3655	67.3828	83.4609	67.3828	83.4124	67.3828	83.4613	67.3828	83.445
68.8477	82.9474	68.8477	82.9354	68.8477	82.9707	68.8477	82.9351	68.8477	83.0048	68.8477	82.9458	68.8477	83.0484	68.8477	82.9669	68.8477	83.1	68.8477	82.9972	68.8477	83.1575	68.8477	83.0354	68.8477	83.219	68.8477	83.0801	68.8477	83.2823	68.8477	83.1303	68.8477	83.3456	68.8477	83.1848	68.8477	83.4073	68.8477	83.2427	68.8477	83.4662	68.8477	83.3033	68.8477	83.5209	68.8477	83.3655	68.8477	83.5704	68.8477	83.4282	68.8477	83.6133	68.8477	83.4893	68.8477	83.6478	68.8477	83.5467	68.8477	83.6722	68.8477	83.5974	68.8477	83.6845	68.8477	83.6386	68.8477	83.6833	68.8477	83.6678
71.7773	83.5256	71.7773	83.5155	71.7773	83.5479	71.7773	83.5175	71.7773	83.5817	71.7773	83.5312	71.7773	83.6256	71.7773	83.5552	71.7773	83.6775	71.7773	83.5879	71.7773	83.735	71.7773	83.6274	71.7773	83.7956	71.7773	83.672	71.7773	83.8567	71.7773	83.7198	71.7773	83.9158	71.7773	83.7693	71.7773	83.9712	71.7773	83.8196	71.7773	84.0212	71.7773	83.8697	71.7773	84.0649	71.7773	83.9191	71.7773	84.1018	71.7773	83.9671	71.7773	84.1312	71.7773	84.0131	71.7773	84.1529	71.7773	84.0559	71.7773	84.1661	71.7773	84.0941	71.7773	84.1702	71.7773	84.1259	71.7773	84.1648	71.7773	84.1498
74.707	84.0385	74.707	84.0291	74.707	84.0602	74.707	84.0321	74.707	84.0936	74.707	84.0466	74.707	84.1369	74.707	84.0711	74.707	84.188	74.707	84.1036	74.707	84.2441	74.707	84.142	74.707	84.3022	74.707	84.1837	74.707	84.3592	74.707	84.2268	74.707	84.4125	74.707	84.2695	74.707	84.4598	74.707	84.3105	74.707	84.4996	74.707	84.3491	74.707	84.5312	74.707	84.385	74.707	84.5544	74.707	84.4185	74.707	84.5697	74.707	84.4497	74.707	84.5776	74.707	84.4786	74.707	84.5789	74.707	84.505	74.707	84.574	74.707	84.5284	74.707	84.5636	74.707	84.5482
77.6367	84.4407	77.6367	84.4307	77.6367	84.4632	77.6367	84.433	77.6367	84.497	77.6367	84.4466	77.6367	84.5407	77.6367	84.47	77.6367	84.5915	77.6367	84.5009	77.6367	84.6464	77.6367	84.5366	77.6367	84.702	77.6367	84.5746	77.6367	84.7551	77.6367	84.6123	77.6367	84.8024	77.6367	84.6479	77.6367	84.8417	77.6367	84.6798	77.6367	84.8714	77.6367	84.7076	77.6367	84.8909	77.6367	84.7313	77.6367	84.9005	77.6367	84.7515	77.6367	84.9014	77.6367	84.7694	77.6367	84.8954	77.6367	84.786	77.6367	84.8842	77.6367	84.8024	77.6367	84.8696	77.6367	84.819	77.6367	84.8532	77.6367	84.8361
79.1016	84.6271	79.1016	84.6167	79.1016	84.65	79.1016	84.6187	79.1016	84.6843	79.1016	84.6321	79.1016	84.7283	79.1016	84.6551	79.1016	84.7793	79.1016	84.6855	79.1016	84.8341	79.1016	84.7203	79.1016	84.8891	79.1016	84.757	79.1016	84.9408	79.1016	84.7928	79.1016	84.9861	79.1016	84.8256	79.1016	85.0223	79.1016	84.8541	79.1016	85.0479	79.1016	84.8776	79.1016	85.0624	79.1016	84.8962	79.1016	85.0664	79.1016	84.911	79.1016	85.0613	79.1016	84.9234	79.1016	85.0492	79.1016	84.9348	79.1016	85.0326	79.1016	84.9469	79.1016	85.0137	79.1016	84.9607	79.1016	84.9946	79.1016	84.9767
82.0312	85.036	82.0312	85.0264	82.0312	85.0583	82.0312	85.0292	82.0312	85.092	82.0312	85.0434	82.0312	85.1354	82.0312	85.067	82.0312	85.1857	82.0312	85.0975	82.0312	85.2393	82.0312	85.1318	82.0312	85.2924	82.0312	85.1669	82.0312	85.3413	82.0312	85.1998	82.0312	85.3824	82.0312	85.2283	82.0312	85.4132	82.0312	85.2506	82.0312	85.4318	82.0312	85.2663	82.0312	85.4379	82.0312	85.2756	82.0312	85.4323	82.0312	85.2799	82.0312	85.4172	82.0312	85.2813	82.0312	85.3954	82.0312	85.2824	82.0312	85.3703	82.0312	85.2854	82.0312	85.3451	82.0312	85.2925	82.0312	85.3227	82.0312	85.3049
84.9609	85.3977	84.9609	85.3847	84.9609	85.4235	84.9609	85.3847	84.9609	85.4611	84.9609	85.3965	84.9609	85.5083	84.9609	85.4183	84.9609	85.562	84.9609	85.4473	84.9609	85.6187	84.9609	85.4804	84.9609	85.6741	84.9609	85.5144	84.9609	85.7243	84.9609	85.5461	84.9609	85.7654	84.9609	85.5729	84.9609	85.7945	84.9609	85.5931	84.9609	85.8098	84.9609	85.6059	84.9609	85.8108	84.9609	85.6119	84.9609	85.7987	84.9609	85.6125	84.9609	85.7758	84.9609	85.6102	84.9609	85.7456	84.9609	85.6079	84.9609	85.7121	84.9609	85.6089	84.9609	85.6795	84.9609	85.6155	84.9609	85.6512	84.9609	85.6295
87.8906	85.6576	87.8906	85.6396	87.8906	85.6891	87.8906	85.6352	87.8906	85.7328	87.8906	85.6433	87.8906	85.7867	87.8906	85.6622	87.8906	85.8475	87.8906	85.689	87.8906	85.9114	87.8906	85.7206	87.8906	85.974	87.8906	85.7539	87.8906	86.0309	87.8906	85.7855	87.8906	86.0779	87.8906	85.8128	87.8906	86.1118	87.8906	85.834	87.8906	86.1302	87.8906	85.8484	87.8906	86.1323	87.8906	85.8564	87.8906	86.1189	87.8906	85.8597	87.8906	86.0924	87.8906	85.8609	87.8906	86.0563	87.8906	85.8631	87.8906	86.0153	87.8906	85.8698	87.8906	85.9738	87.8906	85.8834	87.8906	85.9362	87.8906	85.9055
90.8203	85.9643	90.8203	85.9494	90.8203	85.9911	90.8203	85.9464	90.8203	86.0288	90.8203	85.9542	90.8203	86.0754	90.8203	85.9707	90.8203	86.1279	90.8203	85.9934	90.8203	86.1828	90.8203	86.0192	90.8203	86.2357	90.8203	86.0446	90.8203	86.2825	90.8203	86.0667	90.8203	86.3189	90.8203	86.0827	90.8203	86.3417	90.8203	86.0911	90.8203	86.3486	90.8203	86.0914	90.8203	86.3389	90.8203	86.0843	90.8203	86.3138	90.8203	86.0721	90.8203	86.2759	90.8203	86.0582	90.8203	86.2295	90.8203	86.0465	90.8203	86.1799	90.8203	86.0413	90.8203	86.1326	90.8203	86.0461	90.8203	86.0924	90.8203	86.063
95.2148	86.3559	95.2148	86.3428	95.2148	86.3793	95.2148	86.3401	95.2148	86.4121	95.2148	86.3467	95.2148	86.4525	95.2148	86.3606	95.2148	86.4975	95.2148	86.3791	95.2148	86.5434	95.2148	86.399	95.2148	86.5862	95.2148	86.4168	95.2148	86.6215	95.2148	86.4294	95.2148	86.6453	95.2148	86.4342	95.2148	86.6543	95.2148	86.4292	95.2148	86.6465	95.2148	86.4143	95.2148	86.6214	95.2148	86.3905	95.2148	86.5806	95.2148	86.3605	95.2148	86.5276	95.2148	86.3285	95.2148	86.4676	95.2148	86.2997	95.2148	86.407	95.2148	86.2795	95.2148	86.3523	95.2148	86.2726	95.2148	86.3094	95.2148	86.2823
98.1445	86.536	98.1445	86.5232	98.1445	86.5582	98.1445	86.5198	98.1445	86.5888	98.1445	86.5248	98.1445	86.6259	98.1445	86.5361	98.1445	86.6667	98.1445	86.5513	98.1445	86.7077	98.1445	86.567	98.1445	86.7448	98.1445	86.58	98.1445	86.7738	98.1445	86.5869	98.1445	86.7906	98.1445	86.5852	98.1445	86.7919	98.1445	86.5729	98.1445	86.7759	98.1445	86.5498	98.1445	86.7422	98.1445	86.5172	98.1445	86.6926	98.1445	86.4779	98.1445	86.631	98.1445	86.4367	98.1445	86.5632	98.1445	86.3992	98.1445	86.4961	98.1445	86.3715	98.1445	86.4368	98.1445	86.3589	98.1445	86.3918	98.1445	86.3653
101.074	86.7266	101.074	86.715	101.074	86.7462	101.074	86.7116	101.074	86.7731	101.074	86.7154	101.074	86.8052	101.074	86.7245	101.074	86.84	101.074	86.7364	101.074	86.8739	101.074	86.748	101.074	86.9031	101.074	86.7558	101.074	86.9234	101.074	86.7568	101.074	86.9309	101.074	86.7479	101.074	86.9227	101.074	86.7277	101.074	86.8968	101.074	86.6955	101.074	86.8533	101.074	86.6529	101.074	86.7942	101.074	86.6031	101.074	86.724	101.074	86.551	101.074	86.6488	101.074	86.5028	101.074	86.5763	101.074	86.4654	101.074	86.5142	101.074	86.4448	101.074	86.4691	101.074	86.4455
105.469	86.9736	105.469	86.9557	105.469	86.9986	105.469	86.9453	105.469	87.0297	105.469	86.9414	105.469	87.0649	105.469	86.9426	105.469	87.1014	105.469	86.9465	105.469	87.1358	105.469	86.9501	105.469	87.1639	105.469	86.9501	105.469	87.1817	105.469	86.9433	105.469	87.185	105.469	86.927	105.469	87.1707	105.469	86.8996	105.469	87.1369	105.469	86.8606	105.469	87.0837	105.469	86.8117	105.469	87.0135	105.469	86.7563	105.469	86.9308	105.469	86.6997	105.469	86.8426	105.469	86.6487	105.469	86.7573	105.469	86.6105	105.469	86.6833	105.469	86.5918	105.469	86.6283	105.469	86.5971
108.398	87.0591	108.398	87.0387	108.398	87.0866	108.398	87.0255	108.398	87.1202	108.398	87.0189	108.398	87.1579	108.398	87.0173	108.398	87.1972	108.398	87.0184	108.398	87.2344	108.398	87.0194	108.398	87.2655	108.398	87.0171	108.398	87.2864	108.398	87.0084	108.398	87.2928	108.398	86.9908	108.398	87.2812	108.398	86.9625	108.398	87.2496	108.398	86.9234	108.398	87.1977	108.398	86.8752	108.398	87.1275	108.398	86.8215	108.398	87.0436	108.398	86.7676	108.398	86.9528	108.398	86.7204	108.398	86.8633	108.398	86.687	108.398	86.7841	108.398	86.674	108.398	86.723	108.398	86.6855
112.793	87.1146	112.793	87.0999	112.793	87.1354	112.793	87.0914	112.793	87.1615	112.793	87.0882	112.793	87.1914	112.793	87.0889	112.793	87.2227	112.793	87.0912	112.793	87.2526	112.793	87.0924	112.793	87.2773	112.793	87.0892	112.793	87.2928	112.793	87.0787	112.793	87.2953	112.793	87.0581	112.793	87.2814	112.793	87.026	112.793	87.2488	112.793	86.9822	112.793	87.1971	112.793	86.9286	112.793	87.1282	112.793	86.869	112.793	87.0464	112.793	86.809	112.793	86.9583	112.793	86.7558	112.793	86.8719	112.793	86.7168	112.793	86.7961	112.793	86.6985	112.793	86.7388	112.793	86.7054
117.188	87.2353	117.188	87.2194	117.188	87.2562	117.188	87.2087	117.188	87.2808	117.188	87.2029	117.188	87.3074	117.188	87.2009	117.188	87.3335	117.188	87.2006	117.188	87.356	117.188	87.1993	117.188	87.3712	117.188	87.1938	117.188	87.3752	117.188	87.1805	117.188	87.3643	117.188	87.1566	117.188	87.3356	117.188	87.1197	117.188	87.2873	117.188	87.0693	117.188	87.2199	117.188	87.0067	117.188	87.1361	117.188	86.9357	117.188	87.0415	117.188	86.8621	117.188	86.9436	117.188	86.7936	117.188	86.8519	117.188	86.7386	117.188	86.7757	117.188	86.7051	117.188	86.723	117.188	86.699
120.117	87.3634	120.117	87.3402	120.117	87.3912	120.117	87.3221	120.117	87.4229	120.117	87.3089	120.117	87.4568	120.117	87.2998	120.117	87.4909	120.117	87.2933	120.117	87.5223	120.117	87.2871	120.117	87.5474	120.117	87.2787	120.117	87.5622	120.117	87.2651	120.117	87.5626	120.117	87.2437	120.117	87.5452	120.117	87.2125	120.117	87.5075	120.117	87.171	120.117	87.4492	120.117	87.1203	120.117	87.3724	120.117	87.0635	120.117	87.2817	120.117	87.006	120.117	87.1846	120.117	86.9545	120.117	87.0901	120.117	86.9168	120.117	87.0075	120.117	86.8997	120.117	86.9451	120.117	86.9086
124.512	87.4272	124.512	87.4099	124.512	87.4464	124.512	87.3945	124.512	87.4672	124.512	87.3809	124.512	87.4887	124.512	87.3683	124.512	87.5096	124.512	87.3556	124.512	87.5282	124.512	87.3409	124.512	87.5418	124.512	87.3223	124.512	87.5474	124.512	87.2976	124.512	87.5416	124.512	87.2648	124.512	87.5211	124.512	87.2229	124.512	87.4837	124.512	87.1721	124.512	87.4285	124.512	87.1143	124.512	87.3568	124.512	87.0533	124.512	87.2724	124.512	86.9944	124.512	87.1813	124.512	86.9443	124.512	87.0915	124.512	86.91	124.512	87.0114	124.512	86.8973	124.512	86.949	124.512	86.91
128.906	87.5006	128.906	87.4929	128.906	87.5056	128.906	87.4826	128.906	87.5078	128.906	87.4697	128.906	87.5065	128.906	87.4534	128.906	87.501	128.906	87.4328	128.906	87.4901	128.906	87.4063	128.906	87.4721	128.906	87.372	128.906	87.4452	128.906	87.3279	128.906	87.4069	128.906	87.2724	128.906	87.3555	128.906	87.2049	128.906	87.2898	128.906	87.126	128.906	87.21	128.906	87.0384	128.906	87.1185	128.906	86.9468	128.906	87.0197	128.906	86.8574	128.906	86.9202	128.906	86.7782	128.906	86.8279	128.906	86.717	128.906	86.7515	128.906	86.6808	128.906	86.6985	128.906	86.6742
133.301	87.5588	133.301	87.5518	133.301	87.5617	133.301	87.5409	133.301	87.5597	133.301	87.5263	133.301	87.5519	133.301	87.5072	133.301	87.5369	133.301	87.4824	133.301	87.5131	133.301	87.45	133.301	87.4786	133.301	87.4074	133.301	87.4314	133.301	87.3523	133.301	87.3695	133.301	87.2826	133.301	87.2916	133.301	87.1972	133.301	87.1975	133.301	87.0967	133.301	87.0889	133.301	86.9842	133.301	86.9696	133.301	86.865	133.301	86.8459	133.301	86.7467	133.301	86.726	133.301	86.6388	133.301	86.6197	133.301	86.5512	133.301	86.5365	133.301	86.4926	133.301	86.4847	133.301	86.4695
139.16	87.5408	139.16	87.5247	139.16	87.5548	139.16	87.5075	139.16	87.5651	139.16	87.4897	139.16	87.5702	139.16	87.4713	139.16	87.568	139.16	87.4513	139.16	87.5561	139.16	87.4278	139.16	87.5318	139.16	87.3982	139.16	87.4924	139.16	87.3592	139.16	87.4355	139.16	87.3078	139.16	87.3593	139.16	87.2417	139.16	87.2639	139.16	87.16	139.16	87.1517	139.16	87.064	139.16	87.0278	139.16	86.9574	139.16	86.8998	139.16	86.8468	139.16	86.7779	139.16	86.7407	139.16	86.673	139.16	86.6492	139.16	86.5952	139.16	86.5824	139.16	86.5524	139.16	86.5484
143.555	87.6104	143.555	87.5783	143.555	87.6405	143.555	87.5455	143.555	87.6671	143.555	87.5128	143.555	87.6888	143.555	87.4806	143.555	87.7037	143.555	87.4485	143.555	87.7093	143.555	87.4151	143.555	87.7031	143.555	87.3784	143.555	87.6816	143.555	87.3356	143.555	87.642	143.555	87.284	143.555	87.5815	143.555	87.2216	143.555	87.4991	143.555	87.1479	143.555	87.3961	143.555	87.0644	143.555	87.2764	143.555	86.975	143.555	87.1471	143.555	86.886	143.555	87.0175	143.555	86.8054	143.555	86.8987	143.555	86.7424	143.555	86.8012	143.555	86.7056	143.555	86.7338	143.555	86.7017
147.949	87.6569	147.949	87.6188	147.949	87.6909	147.949	87.5777	147.949	87.7202	147.949	87.5346	147.949	87.7442	147.949	87.4906	147.949	87.7622	147.949	87.4463	147.949	87.773	147.949	87.4018	147.949	87.7748	147.949	87.3567	147.949	87.7651	147.949	87.3097	147.949	87.7407	147.949	87.2595	147.949	87.6988	147.949	87.2049	147.949	87.6375	147.949	87.1459	147.949	87.5565	147.949	87.0836	147.949	87.4581	147.949	87.021	147.949	87.3474	147.949	86.9629	147.949	87.2317	147.949	86.9152	147.949	87.1203	147.949	86.8847	147.949	87.0225	147.949	86.8773	147.949	86.9464	147.949	86.8974
153.809	87.651	153.809	87.6311	153.809	87.6635	153.809	87.6043	153.809	87.6679	153.809	87.5713	153.809	87.6638	153.809	87.5323	153.809	87.6507	153.809	87.4873	153.809	87.6279	153.809	87.4354	153.809	87.594	153.809	87.3755	153.809	87.5477	153.809	87.3062	153.809	87.4873	153.809	87.2266	153.809	87.4116	153.809	87.1365	153.809	87.3202	153.809	87.0376	153.809	87.2146	153.809	86.9334	153.809	87.0981	153.809	86.8294	153.809	86.9765	153.809	86.7326	153.809	86.857	153.809	86.6507	153.809	86.7482	153.809	86.5912	153.809	86.6582	153.809	86.5599	153.809	86.594	153.809	86.5606
159.668	87.4226	159.668	87.4001	159.668	87.4392	159.668	87.3723	159.668	87.4497	159.668	87.3398	159.668	87.454	159.668	87.3032	159.668	87.4521	159.668	87.2625	159.668	87.4433	159.668	87.217	159.668	87.4263	159.668	87.1653	159.668	87.3987	159.668	87.1054	159.668	87.3576	159.668	87.0354	159.668	87.3	159.668	86.9546	159.668	87.2237	159.668	86.8637	159.668	87.1286	159.668	86.7657	159.668	87.0169	159.668	86.6663	159.668	86.894	159.668	86.5729	159.668	86.7678	159.668	86.4942	159.668	86.6481	159.668	86.4388	159.668	86.5452	159.668	86.4137	159.668	86.4681	159.668	86.4232
165.527	87.1815	165.527	87.1642	165.527	87.1853	165.527	87.1352	165.527	87.1744	165.527	87.0974	165.527	87.149	165.527	87.0533	165.527	87.1099	165.527	87.0051	165.527	87.0584	165.527	86.9538	165.527	86.996	165.527	86.899	165.527	86.9235	165.527	86.8386	165.527	86.8416	165.527	86.7702	165.527	86.7506	165.527	86.6913	165.527	86.6513	165.527	86.601	165.527	86.5453	165.527	86.5004	165.527	86.4358	165.527	86.3936	165.527	86.3275	165.527	86.2872	165.527	86.2266	165.527	86.1896	165.527	86.1401	165.527	86.1094	165.527	86.0749	165.527	86.0543	165.527	86.0366	165.527	86.0294
171.387	87.1152	171.387	87.0709	171.387	87.1434	171.387	87.0115	171.387	87.1552	171.387	86.9392	171.387	87.1509	171.387	86.8564	171.387	87.1315	171.387	86.7659	171.387	87.0978	171.387	86.6704	171.387	87.0506	171.387	86.5724	171.387	86.99	171.387	86.4738	171.387	86.9157	171.387	86.3764	171.387	86.8276	171.387	86.2817	171.387	86.7261	171.387	86.1917	171.387	86.6129	171.387	86.1086	171.387	86.4916	171.387	86.0351	171.387	86.3673	171.387	85.9745	171.387	86.2467	171.387	85.9303	171.387	86.1368	171.387	85.9056	171.387	86.0438	171.387	85.9033	171.387	85.9724	171.387	85.9253
177.246	87.1269	177.246	87.093	177.246	87.1427	177.246	87.0428	177.246	87.1397	177.246	86.9787	177.246	87.1179	177.246	86.9037	177.246	87.0781	177.246	86.8205	177.246	87.0214	177.246	86.7315	177.246	86.9486	177.246	86.638	177.246	86.8606	177.246	86.5405	177.246	86.7579	177.246	86.439	177.246	86.6419	177.246	86.3337	177.246	86.5147	177.246	86.2256	177.246	86.38	177.246	86.1174	177.246	86.2434	177.246	86.0132	177.246	86.1116	177.246	85.9186	177.246	85.9919	177.246	85.8393	177.246	85.8907	177.246	85.7807	177.246	85.8131	177.246	85.7468	177.246	85.7625	177.246	85.7404
183.105	87.2635	183.105	87.2187	183.105	87.2886	183.105	87.1547	183.105	87.2939	183.105	87.0734	183.105	87.2806	183.105	86.9772	183.105	87.2497	183.105	86.8689	183.105	87.2027	183.105	86.7512	183.105	87.1399	183.105	86.6268	183.105	87.0614	183.105	86.4981	183.105	86.9665	183.105	86.3673	183.105	86.8547	183.105	86.2373	183.105	86.7265	183.105	86.1115	183.105	86.5844	183.105	85.9944	183.105	86.4331	183.105	85.8909	183.105	86.2795	183.105	85.8067	183.105	86.1318	183.105	85.7464	183.105	85.998	183.105	85.7138	183.105	85.885	183.105	85.7111	183.105	85.7977	183.105	85.7393
188.965	87.3663	188.965	87.3419	188.965	87.3703	188.965	87.2977	188.965	87.3546	188.965	87.2354	188.965	87.3211	188.965	87.1575	188.965	87.2725	188.965	87.0665	188.965	87.2114	188.965	86.965	188.965	87.14	188.965	86.8549	188.965	87.0594	188.965	86.7381	188.965	86.9695	188.965	86.6161	188.965	86.8696	188.965	86.4912	188.965	86.759	188.965	86.3668	188.965	86.6386	188.965	86.2473	188.965	86.5112	188.965	86.1386	188.965	86.3818	188.965	86.0465	188.965	86.257	188.965	85.9767	188.965	86.1441	188.965	85.9333	188.965	86.0495	188.965	85.9189	188.965	85.9783	188.965	85.9341
196.289	87.132	196.289	87.108	196.289	87.1297	196.289	87.0589	196.289	87.1019	196.289	86.9873	196.289	87.0507	196.289	86.8968	196.289	86.9802	196.289	86.7916	196.289	86.8949	196.289	86.6755	196.289	86.7998	196.289	86.5524	196.289	86.6991	196.289	86.4255	196.289	86.5961	196.289	86.2982	196.289	86.4927	196.289	86.1742	196.289	86.3903	196.289	86.058	196.289	86.2898	196.289	85.9546	196.289	86.1925	196.289	85.8689	196.289	86.1001	196.289	85.8051	196.289	86.0146	196.289	85.7651	196.289	85.938	196.289	85.7488	196.289	85.8722	196.289	85.7542	196.289	85.8184	196.289	85.7784
203.613	87.0895	203.613	87.075	203.613	87.0698	203.613	87.0283	203.613	87.0156	203.613	86.9526	203.613	86.9284	203.613	86.8519	203.613	86.8115	203.613	86.7305	203.613	86.6696	203.613	86.5921	203.613	86.5085	203.613	86.4401	203.613	86.335	203.613	86.2775	203.613	86.1562	203.613	86.1076	203.613	85.9795	203.613	85.9349	203.613	85.8123	203.613	85.7655	203.613	85.6614	203.613	85.6073	203.613	85.5323	203.613	85.469	203.613	85.4278	203.613	85.358	203.613	85.3479	203.613	85.2786	203.613	85.2896	203.613	85.2302	203.613	85.2488	203.613	85.2086	203.613	85.2218	203.613	85.2076
210.938	87.2809	210.938	87.2239	210.938	87.3027	210.938	87.1345	210.938	87.288	210.938	87.017	210.938	87.2366	210.938	86.8764	210.938	87.1495	210.938	86.7181	210.938	87.0287	210.938	86.5477	210.938	86.8768	210.938	86.37	210.938	86.697	210.938	86.1889	210.938	86.4939	210.938	86.0077	210.938	86.2732	210.938	85.8296	210.938	86.0432	210.938	85.6583	210.938	85.8143	210.938	85.4985	210.938	85.5987	210.938	85.3553	210.938	85.4083	210.938	85.2337	210.938	85.2528	210.938	85.1375	210.938	85.1369	210.938	85.0682	210.938	85.0604	210.938	85.0254	210.938	85.0193	210.938	85.0088
218.262	87.2447	218.262	87.2089	218.262	87.2484	218.262	87.1417	218.262	87.2212	218.262	87.0451	218.262	87.1659	218.262	86.9226	218.262	87.086	218.262	86.7785	218.262	86.9858	218.262	86.6175	218.262	86.869	218.262	86.4444	218.262	86.7384	218.262	86.2643	218.262	86.596	218.262	86.0827	218.262	86.4433	218.262	85.9056	218.262	86.2824	218.262	85.7395	218.262	86.1168	218.262	85.5917	218.262	85.9519	218.262	85.4684	218.262	85.7945	218.262	85.3747	218.262	85.6518	218.262	85.3128	218.262	85.5294	218.262	85.2823	218.262	85.4306	218.262	85.281	218.262	85.3563	218.262	85.3062
225.586	86.9327	225.586	86.8966	225.586	86.9301	225.586	86.8235	225.586	86.8896	225.586	86.7169	225.586	86.8142	225.586	86.5821	225.586	86.7091	225.586	86.4256	225.586	86.5807	225.586	86.2539	225.586	86.4363	225.586	86.0739	225.586	86.2833	225.586	85.8923	225.586	86.1286	225.586	85.716	225.586	85.9783	225.586	85.5522	225.586	85.8379	225.586	85.4088	225.586	85.7116	225.586	85.2931	225.586	85.6023	225.586	85.2106	225.586	85.511	225.586	85.1635	225.586	85.4365	225.586	85.1494	225.586	85.3756	225.586	85.1618	225.586	85.3236	225.586	85.192	225.586	85.2764	225.586	85.2321
232.91	87.143	232.91	87.1115	232.91	87.1296	232.91	87.0368	232.91	87.0723	232.91	86.9223	232.91	86.9741	232.91	86.7737	232.91	86.8402	232.91	86.5977	232.91	86.6772	232.91	86.4018	232.91	86.4923	232.91	86.1937	232.91	86.293	232.91	85.9814	232.91	86.0867	232.91	85.7725	232.91	85.8808	232.91	85.5748	232.91	85.6831	232.91	85.3965	232.91	85.5018	232.91	85.245	232.91	85.3453	232.91	85.1264	232.91	85.2196	232.91	85.0435	232.91	85.1269	232.91	84.9945	232.91	85.0643	232.91	84.9736	232.91	85.0245	232.91	84.972	232.91	84.999	232.91	84.9819
241.699	86.8729	241.699	86.8108	241.699	86.8828	241.699	86.698	241.699	86.8406	241.699	86.5378	241.699	86.7478	241.699	86.3346	241.699	86.6074	241.699	86.0942	241.699	86.4238	241.699	85.8236	241.699	86.203	241.699	85.5308	241.699	85.9533	241.699	85.2258	241.699	85.6859	241.699	84.9217	241.699	85.4153	241.699	84.6351	241.699	85.1582	241.699	84.386	241.699	84.9316	241.699	84.1943	241.699	84.7483	241.699	84.0748	241.699	84.6129	241.699	84.0308	241.699	84.5203	241.699	84.0516	241.699	84.457	241.699	84.1161	241.699	84.4056	241.699	84.1996	241.699	84.3501	241.699	84.2813
250.488	86.9611	250.488	86.9678	250.488	86.9005	250.488	86.9214	250.488	86.7876	250.488	86.8244	250.488	86.6262	250.488	86.6805	250.488	86.4227	250.488	86.4945	250.488	86.1854	250.488	86.271	250.488	85.9244	250.488	86.0152	250.488	85.6507	250.488	85.7324	250.488	85.3762	250.488	85.4301	250.488	85.1135	250.488	85.1187	250.488	84.8753	250.488	84.8134	250.488	84.6728	250.488	84.5342	250.488	84.5134	250.488	84.303	250.488	84.3972	250.488	84.1379	250.488	84.3167	250.488	84.0468	250.488	84.2586	250.488	84.0229	250.488	84.208	250.488	84.0477	250.488	84.1548	250.488	84.0981
259.277	87.2909	259.277	87.2614	259.277	87.2706	259.277	87.1836	259.277	87.2002	259.277	87.0604	259.277	87.0808	259.277	86.8956	259.277	86.9144	259.277	86.6932	259.277	86.7036	259.277	86.4577	259.277	86.4512	259.277	86.1935	259.277	86.1608	259.277	85.9057	259.277	85.8371	259.277	85.6006	259.277	85.489	259.277	85.287	259.277	85.1305	259.277	84.9765	259.277	84.7823	259.277	84.684	259.277	84.4695	259.277	84.4256	259.277	84.2151	259.277	84.2147	259.277	84.0326	259.277	84.0582	259.277	83.9207	259.277	83.9539	259.277	83.8657	259.277	83.8915	259.277	83.8496	259.277	83.8591
268.066	87.0238	268.066	87.0054	268.066	86.9894	268.066	86.9357	268.066	86.9033	268.066	86.8184	268.066	86.77	268.066	86.6589	268.066	86.5975	268.066	86.4636	268.066	86.3964	268.066	86.2394	268.066	86.1791	268.066	85.9945	268.066	85.9583	268.066	85.7387	268.066	85.7448	268.066	85.4846	268.066	85.5468	268.066	85.2471	268.066	85.3699	268.066	85.0422	268.066	85.2176	268.066	84.8837	268.066	85.0927	268.066	84.7796	268.066	84.9967	268.066	84.7287	268.066	84.9292	268.066	84.7213	268.066	84.8855	268.066	84.7419	268.066	84.857	268.066	84.7745	268.066	84.8335	268.066	84.8068
276.855	86.878	276.855	86.8704	276.855	86.8216	276.855	86.8018	276.855	86.7001	276.855	86.6765	276.855	86.5146	276.855	86.5	276.855	86.2682	276.855	86.2777	276.855	85.9665	276.855	86.0148	276.855	85.6177	276.855	85.7159	276.855	85.2336	276.855	85.3864	276.855	84.832	276.855	85.0346	276.855	84.4377	276.855	84.6744	276.855	84.0827	276.855	84.3274	276.855	83.8012	276.855	84.0224	276.855	83.6184	276.855	83.789	276.855	83.5393	276.855	83.6465	276.855	83.5443	276.855	83.5935	276.855	83.5962	276.855	83.6066	276.855	83.6545	276.855	83.6491	276.855	83.6884	276.855	83.6845
287.109	87.1261	287.109	87.0571	287.109	87.1271	287.109	86.9288	287.109	87.0545	287.109	86.7519	287.109	86.9057	287.109	86.538	287.109	86.6814	287.109	86.2976	287.109	86.3855	287.109	86.0384	287.109	86.0255	287.109	85.7637	287.109	85.6126	287.109	85.4734	287.109	85.163	287.109	85.1663	287.109	84.698	287.109	84.844	287.109	84.2454	287.109	84.5154	287.109	83.8375	287.109	84.1976	287.109	83.5069	287.109	83.9131	287.109	83.2777	287.109	83.6825	287.109	83.1558	287.109	83.5152	287.109	83.1251	287.109	83.4041	287.109	83.1539	287.109	83.3295	287.109	83.2092	287.109	83.2689
297.363	87.4147	297.363	87.3377	297.363	87.4239	297.363	87.1927	297.363	87.3671	297.363	86.9814	297.363	87.2474	297.363	86.7085	297.363	87.0679	297.363	86.3818	297.363	86.8313	297.363	86.013	297.363	86.5403	297.363	85.6172	297.363	86.1974	297.363	85.2127	297.363	85.8076	297.363	84.8192	297.363	85.3806	297.363	84.4558	297.363	84.9339	297.363	84.1387	297.363	84.4945	297.363	83.8792	297.363	84.0961	297.363	83.6822	297.363	83.7714	297.363	83.5451	297.363	83.541	297.363	83.4582	297.363	83.4054	297.363	83.4063	297.363	83.3463	297.363	83.3736	297.363	83.3361	297.363	83.3499
307.617	87.0217	307.617	86.9724	307.617	87.0054	307.617	86.8596	307.617	86.9245	307.617	86.6877	307.617	86.7828	307.617	86.4628	307.617	86.5866	307.617	86.193	307.617	86.3447	307.617	85.8878	307.617	86.068	307.617	85.5583	307.617	85.7683	307.617	85.219	307.617	85.459	307.617	84.8879	307.617	85.1551	307.617	84.5868	307.617	84.8738	307.617	84.3393	307.617	84.6341	307.617	84.1651	307.617	84.4528	307.617	84.0739	307.617	84.3396	307.617	84.0601	307.617	84.2908	307.617	84.1038	307.617	84.2884	307.617	84.176	307.617	84.3052	307.617	84.2476	307.617	84.3142	307.617	84.2968
319.336	86.938	319.336	86.8667	319.336	86.9413	319.336	86.7272	319.336	86.8777	319.336	86.5201	319.336	86.7485	319.336	86.2466	319.336	86.5553	319.336	85.9086	319.336	86.2992	319.336	85.5089	319.336	85.9812	319.336	85.0527	319.336	85.6042	319.336	84.5504	319.336	85.1756	319.336	84.0224	319.336	84.7118	319.336	83.5035	319.336	84.2416	319.336	83.0444	319.336	83.8072	319.336	82.703	319.336	83.4553	319.336	82.5227	319.336	83.2208	319.336	82.5079	319.336	83.1085	319.336	82.6178	319.336	83.0879	319.336	82.7862	319.336	83.1062	319.336	82.9487	319.336	83.1101	319.336	83.0618
329.59	87.0161	329.59	87.0434	329.59	86.9176	329.59	87.0001	329.59	86.7492	329.59	86.8874	329.59	86.5139	329.59	86.7059	329.59	86.2169	329.59	86.4549	329.59	85.8646	329.59	86.132	329.59	85.4643	329.59	85.7343	329.59	85.0247	329.59	85.261	329.59	84.558	329.59	84.7189	329.59	84.0845	329.59	84.1297	329.59	83.6365	329.59	83.5372	329.59	83.257	329.59	83.0091	329.59	82.9889	329.59	82.623	329.59	82.8535	329.59	82.432	329.59	82.8345	329.59	82.4311	329.59	82.882	329.59	82.558	329.59	82.9337	329.59	82.7272	329.59	82.9376	329.59	82.8671
341.309	86.7606	341.309	86.724	341.309	86.7334	341.309	86.6273	341.309	86.642	341.309	86.4769	341.309	86.4892	341.309	86.281	341.309	86.2795	341.309	86.0474	341.309	86.0176	341.309	85.7812	341.309	85.7063	341.309	85.4836	341.309	85.346	341.309	85.1519	341.309	84.9364	341.309	84.7821	341.309	84.4808	341.309	84.3745	341.309	83.9938	341.309	83.9397	341.309	83.5079	341.309	83.5045	341.309	83.0731	341.309	83.1109	341.309	82.743	341.309	82.8046	341.309	82.5482	341.309	82.613	341.309	82.4765	341.309	82.5285	341.309	82.4799	341.309	82.5118	341.309	82.5038	341.309	82.5143
353.027	87.0428	353.027	87.032	353.027	86.9736	353.027	86.9472	353.027	86.8207	353.027	86.7956	353.027	86.5822	353.027	86.5845	353.027	86.2577	353.027	86.3203	353.027	85.847	353.027	86.0067	353.027	85.349	353.027	85.6443	353.027	84.7625	353.027	85.2317	353.027	84.0899	353.027	84.7683	353.027	83.3467	353.027	84.2595	353.027	82.578	353.027	83.7246	353.027	81.8735	353.027	83.2028	353.027	81.36	353.027	82.7515	353.027	81.1419	353.027	82.428	353.027	81.2195	353.027	82.2563	353.027	81.4818	353.027	82.2051	353.027	81.7849	353.027	82.1998	353.027	82.0248	353.027	82.1587
366.211	87.0065	366.211	86.8801	366.211	87.0593	366.211	86.6863	366.211	87.0374	366.211	86.4366	366.211	86.9442	366.211	86.1457	366.211	86.7855	366.211	85.8287	366.211	86.5676	366.211	85.498	366.211	86.294	366.211	85.1604	366.211	85.9632	366.211	84.817	366.211	85.5686	366.211	84.4664	366.211	85.1011	366.211	84.1098	366.211	84.5569	366.211	83.7559	366.211	83.9486	366.211	83.4224	366.211	83.3188	366.211	83.1319	366.211	82.7447	366.211	82.9013	366.211	82.3196	366.211	82.7307	366.211	82.1044	366.211	82.5993	366.211	82.0863	366.211	82.4758	366.211	82.1913	366.211	82.3375
379.395	86.5228	379.395	86.4797	379.395	86.4863	379.395	86.3561	379.395	86.378	379.395	86.157	379.395	86.2117	379.395	85.8911	379.395	86.0044	379.395	85.5678	379.395	85.7713	379.395	85.1933	379.395	85.5194	379.395	84.7665	379.395	85.2432	379.395	84.2788	379.395	84.9248	379.395	83.7168	379.395	84.5402	379.395	83.0719	379.395	84.0699	379.395	82.3539	379.395	83.5111	379.395	81.6089	379.395	82.8893	379.395	80.9297	379.395	82.2626	379.395	80.4359	379.395	81.708	379.395	80.2088	379.395	81.2845	379.395	80.228	379.395	80.9947	379.395	80.3905	379.395	80.7851	379.395	80.5914
392.578	86.39	392.578	86.3575	392.578	86.2852	392.578	86.1983	392.578	86.0429	392.578	85.9334	392.578	85.6762	392.578	85.5932	392.578	85.2152	392.578	85.216	392.578	84.7091	392.578	84.8424	392.578	84.2216	392.578	84.5039	392.578	83.8121	392.578	84.2116	392.578	83.5082	392.578	83.9508	392.578	83.2896	392.578	83.6877	392.578	83.1009	392.578	83.3853	392.578	82.8843	392.578	83.02	392.578	82.6072	392.578	82.5937	392.578	82.2732	392.578	82.1395	392.578	81.9177	392.578	81.7147	392.578	81.5901	392.578	81.3813	392.578	81.3325	392.578	81.1786	392.578	81.1689	392.578	81.1126
405.762	87.1454	405.762	87.1143	405.762	87.0398	405.762	86.9564	405.762	86.7892	405.762	86.6838	405.762	86.3875	405.762	86.3114	405.762	85.8337	405.762	85.8575	405.762	85.1384	405.762	85.3436	405.762	84.3351	405.762	84.7928	405.762	83.4947	405.762	84.2286	405.762	82.7321	405.762	83.6741	405.762	82.1763	405.762	83.154	405.762	81.8956	405.762	82.6956	405.762	81.8449	405.762	82.3251	405.762	81.9069	405.762	82.0586	405.762	81.9759	405.762	81.8946	405.762	82.0013	405.762	81.8148	405.762	81.9809	405.762	81.7933	405.762	81.9352	405.762	81.8069	405.762	81.8845	405.762	81.8399
420.41	87.9303	420.41	87.8063	420.41	87.9179	420.41	87.5505	420.41	87.7651	420.41	87.1696	420.41	87.4694	420.41	86.6754	420.41	87.031	420.41	86.0907	420.41	86.4562	420.41	85.4569	420.41	85.761	420.41	84.8384	420.41	84.9735	420.41	84.3125	420.41	84.1356	420.41	83.9382	420.41	83.3015	420.41	83.7185	420.41	82.5333	420.41	83.5955	420.41	81.896	420.41	83.4871	420.41	81.4464	420.41	83.3304	420.41	81.2127	420.41	83.1027	420.41	81.1774	420.41	82.818	420.41	81.2846	420.41	82.5107	420.41	81.4714	420.41	82.2132	420.41	81.6952	420.41	81.9416
435.059	87.8094	435.059	87.6634	435.059	87.8141	435.059	87.3821	435.059	87.6699	435.059	86.9709	435.059	87.367	435.059	86.4378	435.059	86.8948	435.059	85.7985	435.059	86.2444	435.059	85.0834	435.059	85.4151	435.059	84.3447	435.059	84.4252	435.059	83.6576	435.059	83.3322	435.059	83.1037	435.059	82.2564	435.059	82.7355	435.059	81.3815	435.059	82.5469	435.059	80.878	435.059	82.4812	435.059	80.7757	435.059	82.4677	435.059	80.947	435.059	82.4542	435.059	81.2271	435.059	82.4146	435.059	81.5088	435.059	82.3426	435.059	81.7508	435.059	82.2401	435.059	81.9484	435.059	82.1094
451.172	88.1877	451.172	87.9554	451.172	88.2965	451.172	87.5986	451.172	88.2782	451.172	87.1127	451.172	88.123	451.172	86.4913	451.172	87.8149	451.172	85.7282	451.172	87.3321	451.172	84.8215	451.172	86.6496	451.172	83.7818	451.172	85.7457	451.172	82.6496	451.172	84.6157	451.172	81.5268	451.172	83.3	451.172	80.6036	451.172	81.9345	451.172	80.1085	451.172	80.7902	451.172	80.1317	451.172	80.175	451.172	80.5213	451.172	80.1596	451.172	81.0267	451.172	80.5151	451.172	81.4655	451.172	80.9718	451.172	81.7555	451.172	81.3776	451.172	81.8792	451.172	81.6756	451.172	81.8471
465.82	88.1868	465.82	88.0725	465.82	88.2267	465.82	87.8763	465.82	88.1915	465.82	87.5826	465.82	88.0724	465.82	87.1688	465.82	87.8528	465.82	86.6058	465.82	87.5102	465.82	85.8607	465.82	87.0192	465.82	84.9016	465.82	86.3569	465.82	83.7093	465.82	85.5111	465.82	82.3067	465.82	84.4955	465.82	80.8219	465.82	83.3752	465.82	79.5791	465.82	82.2988	465.82	79.0258	465.82	81.4924	465.82	79.2921	465.82	81.1403	465.82	80.0204	465.82	81.2188	465.82	80.806	465.82	81.5228	465.82	81.4417	465.82	81.8399	465.82	81.8609	465.82	82.0388	465.82	82.0555
483.398	87.7062	483.398	87.7379	483.398	87.5961	483.398	87.683	483.398	87.4125	483.398	87.5285	483.398	87.1569	483.398	87.2571	483.398	86.8279	483.398	86.8476	483.398	86.4212	483.398	86.2774	483.398	85.9296	483.398	85.5273	483.398	85.3447	483.398	84.5903	483.398	84.6618	483.398	83.4875	483.398	83.8931	483.398	82.2953	483.398	83.089	483.398	81.1808	483.398	82.3601	483.398	80.3987	483.398	81.8605	483.398	80.157	483.398	81.6956	483.398	80.4261	483.398	81.8231	483.398	80.971	483.398	82.083	483.398	81.5517	483.398	82.3122	483.398	82.0213	483.398	82.4053	483.398	82.3125
499.512	87.5135	499.512	87.4867	499.512	87.4756	499.512	87.4005	499.512	87.3621	499.512	87.2525	499.512	87.1567	499.512	87.0314	499.512	86.8378	499.512	86.7159	499.512	86.3778	499.512	86.2772	499.512	85.7442	499.512	85.6833	499.512	84.9025	499.512	84.9072	499.512	83.826	499.512	83.9403	499.512	82.5207	499.512	82.8184	499.512	81.0882	499.512	81.6655	499.512	79.83	499.512	80.7295	499.512	79.23	499.512	80.2969	499.512	79.4985	499.512	80.4407	499.512	80.2748	499.512	80.9361	499.512	81.0945	499.512	81.4914	499.512	81.7148	499.512	81.9168	499.512	82.0592	499.512	82.1202
517.09	87.3445	517.09	87.3019	517.09	87.3339	517.09	87.2037	517.09	87.2688	517.09	87.0432	517.09	87.1421	517.09	86.8095	517.09	86.9387	517.09	86.4857	517.09	86.6334	517.09	86.0486	517.09	86.1911	517.09	85.4704	517.09	85.5688	517.09	84.722	517.09	84.7201	517.09	83.7805	517.09	83.6056	517.09	82.6449	517.09	82.2182	517.09	81.3696	517.09	80.6469	517.09	80.1208	517.09	79.1974	517.09	79.2041	517.09	78.4038	517.09	78.9014	517.09	78.527	517.09	79.1684	517.09	79.1735	517.09	79.6774	517.09	79.8311	517.09	80.1231	517.09	80.2428	517.09	80.336
536.133	87.0654	536.133	86.9674	536.133	87.1062	536.133	86.8089	536.133	87.0908	536.133	86.5836	536.133	87.0157	536.133	86.2814	536.133	86.87	536.133	85.8863	536.133	86.6318	536.133	85.3776	536.133	86.2671	536.133	84.7324	536.133	85.7312	536.133	83.9317	536.133	84.9742	536.133	82.9732	536.133	83.9493	536.133	81.8944	536.133	82.6341	536.133	80.8133	536.133	81.0826	536.133	79.957	536.133	79.5433	536.133	79.5777	536.133	78.5512	536.133	79.7253	536.133	78.5377	536.133	80.1769	536.133	79.2255	536.133	80.6452	536.133	80.0393	536.133	80.936	536.133	80.6495	536.133	80.9509
555.176	86.7771	555.176	86.7773	555.176	86.752	555.176	86.7503	555.176	86.6981	555.176	86.6862	555.176	86.6039	555.176	86.5641	555.176	86.4481	555.176	86.3488	555.176	86.1999	555.176	85.9917	555.176	85.8222	555.176	85.4339	555.176	85.2782	555.176	84.614	555.176	84.5387	555.176	83.4797	555.176	83.5929	555.176	82.0178	555.176	82.4663	555.176	80.3338	555.176	81.2574	555.176	78.8185	555.176	80.1844	555.176	78.1471	555.176	79.5563	555.176	78.5423	555.176	79.54	555.176	79.429	555.176	79.9614	555.176	80.2519	555.176	80.488	555.176	80.7885	555.176	80.8727	555.176	80.9908
574.219	86.8437	574.219	86.8809	574.219	86.7723	574.219	86.8813	574.219	86.6695	574.219	86.8414	574.219	86.5374	574.219	86.7518	574.219	86.37	574.219	86.5941	574.219	86.146	574.219	86.3395	574.219	85.8233	574.219	85.9489	574.219	85.341	574.219	85.3752	574.219	84.6272	574.219	84.5668	574.219	83.6141	574.219	83.4758	574.219	82.2642	574.219	82.0803	574.219	80.6399	574.219	80.4487	574.219	79.0561	574.219	78.8815	574.219	78.157	574.219	77.9847	574.219	78.3088	574.219	78.1225	574.219	79.0309	574.219	78.8595	574.219	79.711	574.219	79.5934	574.219	80.0685	574.219	80.027
594.727	86.3818	594.727	86.3327	594.727	86.4643	594.727	86.3252	594.727	86.5636	594.727	86.354	594.727	86.6545	594.727	86.3923	594.727	86.6999	594.727	86.3895	594.727	86.651	594.727	86.2778	594.727	86.4518	594.727	85.9857	594.727	86.0443	594.727	85.4507	594.727	85.3743	594.727	84.6338	594.727	84.3943	594.727	83.54	594.727	83.0757	594.727	82.2614	594.727	81.4491	594.727	81.0361	594.727	79.7254	594.727	80.2251	594.727	78.4686	594.727	80.0414	594.727	78.2943	594.727	80.3104	594.727	78.9968	594.727	80.6868	594.727	79.8834	594.727	80.9242	594.727	80.5542	594.727	80.899
615.234	84.9992	615.234	85.0057	615.234	85.057	615.234	85.0688	615.234	85.2014	615.234	85.1911	615.234	85.4468	615.234	85.3617	615.234	85.7678	615.234	85.5347	615.234	86.0865	615.234	85.629	615.234	86.2911	615.234	85.5445	615.234	86.2635	615.234	85.1795	615.234	85.8955	615.234	84.4404	615.234	85.0898	615.234	83.2545	615.234	83.7634	615.234	81.6228	615.234	81.8877	615.234	79.821	615.234	79.7042	615.234	78.7529	615.234	78.2752	615.234	79.2427	615.234	78.7895	615.234	80.5764	615.234	80.321	615.234	81.7915	615.234	81.6699	615.234	82.5485	615.234	82.5002	615.234	82.7878
637.207	85.8475	637.207	85.8863	637.207	85.6979	637.207	85.8279	637.207	85.4824	637.207	85.7265	637.207	85.3043	637.207	85.6473	637.207	85.2824	637.207	85.6269	637.207	85.461	637.207	85.6437	637.207	85.7531	637.207	85.6186	637.207	85.9854	637.207	85.4419	637.207	85.9812	637.207	84.9984	637.207	85.5988	637.207	84.1798	637.207	84.7299	637.207	82.8936	637.207	83.3	637.207	81.1116	637.207	81.334	637.207	79.0778	637.207	79.2441	637.207	77.7569	637.207	78.2186	637.207	78.1364	637.207	78.8577	637.207	79.4013	637.207	80.0061	637.207	80.4553	637.207	80.7755	637.207	80.9341
659.18	85.6595	659.18	85.5897	659.18	85.5958	659.18	85.436	659.18	85.3993	659.18	85.2858	659.18	85.1251	659.18	85.2293	659.18	84.8754	659.18	85.3018	659.18	84.757	659.18	85.447	659.18	84.8032	659.18	85.541	659.18	84.9267	659.18	85.4482	659.18	84.9603	659.18	85.0561	659.18	84.7277	659.18	84.2841	659.18	84.0812	659.18	83.0904	659.18	82.9128	659.18	81.5229	659.18	81.2115	659.18	79.897	659.18	79.3251	659.18	78.9975	659.18	78.3862	659.18	79.3788	659.18	79.1201	659.18	80.4121	659.18	80.4245	659.18	81.2813	659.18	81.3438	659.18	81.629
682.617	86.3337	682.617	86.1387	682.617	86.2876	682.617	85.7213	682.617	86.0224	682.617	85.1549	682.617	85.601	682.617	84.5868	682.617	85.1305	682.617	84.2134	682.617	84.7421	682.617	84.1553	682.617	84.5215	682.617	84.3278	682.617	84.4348	682.617	84.4958	682.617	84.3342	682.617	84.4271	682.617	84.0355	682.617	83.9651	682.617	83.3769	682.617	83.035	682.617	82.2398	682.617	81.6751	682.617	80.6012	682.617	80.1828	682.617	78.7769	682.617	79.2793	682.617	77.847	682.617	79.5139	682.617	78.586	682.617	80.3811	682.617	79.9543	682.617	81.1174	682.617	80.9669	682.617	81.354
707.52	87.1061	707.52	87.0472	707.52	86.9847	707.52	86.8183	707.52	86.6919	707.52	86.4441	707.52	86.2638	707.52	85.9627	707.52	85.7725	707.52	85.4224	707.52	85.3218	707.52	84.8719	707.52	85.0028	707.52	84.3424	707.52	84.8221	707.52	83.8241	707.52	84.6691	707.52	83.2527	707.52	84.3655	707.52	82.5187	707.52	83.7339	707.52	81.5003	707.52	82.6342	707.52	80.1297	707.52	80.9968	707.52	78.5519	707.52	78.9662	707.52	77.3976	707.52	77.3105	707.52	77.4419	707.52	77.191	707.52	78.3419	707.52	78.2024	707.52	79.1798	707.52	79.1353	707.52	79.4859
732.422	86.2856	732.422	86.1682	732.422	86.217	732.422	85.9	732.422	85.9649	732.422	85.5564	732.422	85.5687	732.422	85.2421	732.422	85.1052	732.422	85.0462	732.422	84.6739	732.422	84.9776	732.422	84.3521	732.422	84.9418	732.422	84.135	732.422	84.7884	732.422	83.9171	732.422	84.3703	732.422	83.5351	732.422	83.5691	732.422	82.8229	732.422	82.2976	732.422	81.6519	732.422	80.5302	732.422	80.0022	732.422	78.48	732.422	78.2088	732.422	77.0366	732.422	77.2961	732.422	77.2696	732.422	77.9001	732.422	78.5036	732.422	79.0576	732.422	79.5745	732.422	79.8689	732.422	80.0552
757.324	86.7233	757.324	86.6081	757.324	86.5419	757.324	86.1984	757.324	86.0896	757.324	85.5343	757.324	85.4325	757.324	84.7313	757.324	84.7045	757.324	84.0193	757.324	84.1075	757.324	83.6695	757.324	83.8118	757.324	83.7406	757.324	83.796	757.324	83.9741	757.324	83.8444	757.324	84.0268	757.324	83.704	757.324	83.661	757.324	83.1811	757.324	82.7611	757.324	82.1465	757.324	81.3369	757.324	80.5592	757.324	79.6642	757.324	78.683	757.324	78.5526	757.324	77.581	757.324	78.7734	757.324	78.2216	757.324	79.7799	757.324	79.6002	757.324	80.6498	757.324	80.6188	757.324	80.9705
785.156	87.3522	785.156	87.219	785.156	87.2541	785.156	86.8705	785.156	86.9219	785.156	86.3337	785.156	86.3736	785.156	85.65	785.156	85.6638	785.156	84.8802	785.156	84.903	785.156	84.1105	785.156	84.2433	785.156	83.4394	785.156	83.7841	785.156	82.9194	785.156	83.4534	785.156	82.4796	785.156	83.023	785.156	81.9186	785.156	82.2329	785.156	80.9829	785.156	80.8672	785.156	79.457	785.156	78.788	785.156	77.3208	785.156	76.1853	785.156	75.3608	785.156	74.5743	785.156	75.4231	785.156	75.6169	785.156	77.0349	785.156	77.4526	785.156	78.4021	785.156	78.6451	785.156	78.9621
811.523	86.4688	811.523	86.3111	811.523	86.3893	811.523	85.9326	811.523	86.074	811.523	85.3756	811.523	85.5472	811.523	84.7244	811.523	84.8736	811.523	84.1123	811.523	84.1768	811.523	83.6755	811.523	83.6202	811.523	83.4505	811.523	83.3045	811.523	83.32	811.523	83.1507	811.523	83.0836	811.523	82.9234	811.523	82.5542	811.523	82.3533	811.523	81.5921	811.523	81.2066	811.523	80.1166	811.523	79.309	811.523	78.207	811.523	76.7294	811.523	76.4744	811.523	74.7065	811.523	76.1409	811.523	75.325	811.523	77.151	811.523	77.1079	811.523	78.2206	811.523	78.3229	811.523	78.6758
840.82	87.4437	840.82	87.2623	840.82	87.2926	840.82	86.7447	840.82	86.8074	840.82	85.8878	840.82	85.9933	840.82	84.7223	840.82	84.8983	840.82	83.4062	840.82	83.6817	840.82	82.3552	840.82	82.6651	840.82	82.0635	840.82	82.1638	840.82	82.427	840.82	82.1193	840.82	82.8028	840.82	82.1384	840.82	82.6754	840.82	81.8486	840.82	81.7866	840.82	81.004	840.82	80.0482	840.82	79.4456	840.82	77.7584	840.82	77.277	840.82	76.48	840.82	75.8066	840.82	77.5997	840.82	76.9052	840.82	79.3825	840.82	78.9603	840.82	80.5621	840.82	80.3814	840.82	80.9076
870.117	86.6087	870.117	86.4671	870.117	86.5098	870.117	86.0971	870.117	86.1616	870.117	85.519	870.117	85.5603	870.117	84.7729	870.117	84.7236	870.117	83.9314	870.117	83.7279	870.117	83.1009	870.117	82.7582	870.117	82.3898	870.117	82.0796	870.117	81.8428	870.117	81.8024	870.117	81.3881	870.117	81.6847	870.117	80.8456	870.117	81.3082	870.117	79.9742	870.117	80.3022	870.117	78.5207	870.117	78.3525	870.117	76.3291	870.117	75.1991	870.117	73.9294	870.117	71.7647	870.117	73.5938	870.117	72.6128	870.117	75.4416	870.117	75.4767	870.117	77.0643	870.117	77.2067	870.117	77.6921
900.879	86.052	900.879	85.8519	900.879	85.9446	900.879	85.3446	900.879	85.536	900.879	84.5503	900.879	84.8449	900.879	83.5527	900.879	83.9293	900.879	82.5723	900.879	82.933	900.879	81.9594	900.879	82.118	900.879	81.9016	900.879	81.7461	900.879	82.1452	900.879	81.797	900.879	82.2498	900.879	81.927	900.879	81.8963	900.879	81.7308	900.879	80.9019	900.879	80.8803	900.879	79.155	900.879	79.0806	900.879	76.7091	900.879	76.0586	900.879	74.5457	900.879	72.5855	900.879	74.8823	900.879	73.2616	900.879	76.7857	900.879	76.2249	900.879	78.2265	900.879	78.0807	900.879	78.6954
933.105	87.2559	933.105	87.1521	933.105	87.1275	933.105	86.8059	933.105	86.7537	933.105	86.1838	933.105	86.1008	933.105	85.2329	933.105	85.1256	933.105	83.9013	933.105	83.818	933.105	82.2163	933.105	82.3121	933.105	80.516	933.105	81.0509	933.105	79.6435	933.105	80.5702	933.105	79.96	933.105	80.7001	933.105	80.5465	933.105	80.7123	933.105	80.5078	933.105	80.0527	933.105	79.3867	933.105	78.353	933.105	76.7905	933.105	75.1334	933.105	72.3093	933.105	69.903	933.105	69.8567	933.105	69.3949	933.105	73.7621	933.105	74.0338	933.105	76.4355	933.105	76.5655	933.105	77.2935
965.332	88.4956	965.332	88.3673	965.332	88.4052	965.332	88.0155	965.332	88.0972	965.332	87.4337	965.332	87.5685	965.332	86.6231	965.332	86.8164	965.332	85.6142	965.332	85.8584	965.332	84.5033	965.332	84.7845	965.332	83.482	965.332	83.8309	965.332	82.7773	965.332	83.3082	965.332	82.4483	965.332	83.2354	965.332	82.2631	965.332	83.1982	965.332	81.8424	965.332	82.7032	965.332	80.8262	965.332	81.3813	965.332	78.9102	965.332	78.9217	965.332	76.0073	965.332	75.1547	965.332	73.646	965.332	72.275	965.332	74.765	965.332	74.3147	965.332	76.6928	965.332	76.6162	965.332	77.3976
1000.49	89.1344	1000.49	89.0305	1000.49	88.9771	1000.49	88.6625	1000.49	88.5413	1000.49	88.0026	1000.49	87.7919	1000.49	86.9977	1000.49	86.681	1000.49	85.5816	1000.49	85.1742	1000.49	83.7398	1000.49	83.3497	1000.49	81.7488	1000.49	81.6562	1000.49	80.5704	1000.49	80.9791	1000.49	80.9216	1000.49	81.4686	1000.49	81.8051	1000.49	82.1728	1000.49	82.1489	1000.49	82.3424	1000.49	81.5322	1000.49	81.6301	1000.49	79.7856	1000.49	79.8182	1000.49	77.034	1000.49	76.964	1000.49	75.1197	1000.49	75.0462	1000.49	76.4629	1000.49	76.5681	1000.49	78.336	1000.49	78.4372	1000.49	79.061
1035.64	88.2849	1035.64	88.1768	1035.64	88.186	1035.64	87.8631	1035.64	87.8738	1035.64	87.3414	1035.64	87.3306	1035.64	86.6006	1035.64	86.5278	1035.64	85.6192	1035.64	85.4462	1035.64	84.3882	1035.64	84.1251	1035.64	82.9857	1035.64	82.737	1035.64	81.6807	1035.64	81.6041	1035.64	80.8469	1035.64	80.9632	1035.64	80.4871	1035.64	80.6379	1035.64	80.0912	1035.64	80.1487	1035.64	79.0957	1035.64	79.0005	1035.64	77.1143	1035.64	76.7712	1035.64	74.2226	1035.64	73.5932	1035.64	72.8585	1035.64	72.842	1035.64	74.9886	1035.64	75.4918	1035.64	77.1052	1035.64	77.437	1035.64	77.9516
1072.27	88.3659	1072.27	88.2314	1072.27	88.2613	1072.27	87.8637	1072.27	87.9001	1072.27	87.2496	1072.27	87.2569	1072.27	86.3555	1072.27	86.2925	1072.27	85.1453	1072.27	84.9469	1072.27	83.6373	1072.27	83.1721	1072.27	82.0363	1072.27	81.1296	1072.27	80.8881	1072.27	79.6724	1072.27	80.704	1072.27	79.8143	1072.27	81.1245	1072.27	80.7238	1072.27	81.3321	1072.27	81.1172	1072.27	80.7697	1072.27	80.4419	1072.27	79.1309	1072.27	78.3927	1072.27	76.443	1072.27	74.7994	1072.27	74.4865	1072.27	72.377	1072.27	75.8365	1072.27	75.1356	1072.27	77.7325	1072.27	77.6013	1072.27	78.4115
1108.89	88.1856	1108.89	88.1105	1108.89	88.0825	1108.89	87.8515	1108.89	87.8047	1108.89	87.3988	1108.89	87.343	1108.89	86.729	1108.89	86.6624	1108.89	85.8004	1108.89	85.6986	1108.89	84.5679	1108.89	84.3808	1108.89	83.0432	1108.89	82.7065	1108.89	81.4194	1108.89	80.9135	1108.89	80.1414	1108.89	79.6179	1108.89	79.4943	1108.89	79.1934	1108.89	79.0871	1108.89	78.9944	1108.89	78.2541	1108.89	78.0858	1108.89	76.4721	1108.89	75.7155	1108.89	73.4509	1108.89	71.2235	1108.89	71.1183	1108.89	69.4825	1108.89	73.5515	1108.89	74.0648	1108.89	76.2956	1108.89	76.7336	1108.89	77.3826
1148.44	88.1429	1148.44	88.0646	1148.44	87.9747	1148.44	87.7449	1148.44	87.5612	1148.44	87.1855	1148.44	86.9105	1148.44	86.3726	1148.44	86.0285	1148.44	85.2817	1148.44	84.907	1148.44	83.9211	1148.44	83.523	1148.44	82.426	1148.44	81.8999	1148.44	81.1545	1148.44	80.319	1148.44	80.5159	1148.44	79.4881	1148.44	80.4347	1148.44	79.6637	1148.44	80.3259	1148.44	79.9562	1148.44	79.6	1148.44	79.469	1148.44	77.8363	1148.44	77.6932	1148.44	74.9442	1148.44	74.332	1148.44	73.0177	1148.44	71.4703	1148.44	74.9876	1148.44	74.0718	1148.44	77.1578	1148.44	76.8332	1148.44	77.8284
1189.45	87.5733	1189.45	87.4528	1189.45	87.4591	1189.45	87.1073	1189.45	87.1299	1189.45	86.5663	1189.45	86.623	1189.45	85.8565	1189.45	85.9571	1189.45	84.9733	1189.45	85.095	1189.45	83.8609	1189.45	83.9495	1189.45	82.4327	1189.45	82.4536	1189.45	80.6897	1189.45	80.6811	1189.45	78.9947	1189.45	78.9962	1189.45	78.1276	1189.45	77.97	1189.45	78.1529	1189.45	77.6456	1189.45	78.0716	1189.45	77.2497	1189.45	77.0433	1189.45	75.9035	1189.45	74.6523	1189.45	72.935	1189.45	71.7266	1189.45	69.4222	1189.45	72.4082	1189.45	71.5487	1189.45	74.7843	1189.45	74.5999	1189.45	75.6485
1230.47	87.512	1230.47	87.3134	1230.47	87.4124	1230.47	86.8434	1230.47	86.9946	1230.47	86.1256	1230.47	86.252	1230.47	85.1699	1230.47	85.1965	1230.47	83.9763	1230.47	83.8658	1230.47	82.5759	1230.47	82.3452	1230.47	81.1138	1230.47	80.8012	1230.47	79.8977	1230.47	79.5187	1230.47	79.234	1230.47	78.8339	1230.47	79.084	1230.47	78.7552	1230.47	78.9906	1230.47	78.7274	1230.47	78.3355	1230.47	78.0305	1230.47	76.5464	1230.47	76.0517	1230.47	73.3841	1230.47	72.5067	1230.47	71.3577	1230.47	70.927	1230.47	73.7862	1230.47	74.1738	1230.47	76.1639	1230.47	76.4821	1230.47	77.0781
1274.41	87.136	1274.41	87.0406	1274.41	86.9436	1274.41	86.6636	1274.41	86.4869	1274.41	86.0361	1274.41	85.8079	1274.41	85.1985	1274.41	84.9428	1274.41	84.1863	1274.41	83.8982	1274.41	83.0192	1274.41	82.6548	1274.41	81.7016	1274.41	81.2193	1274.41	80.2657	1274.41	79.6831	1274.41	78.8629	1274.41	78.1899	1274.41	77.7461	1274.41	76.8561	1274.41	76.9718	1274.41	75.7943	1274.41	76.1959	1274.41	74.8908	1274.41	74.915	1274.41	73.4693	1274.41	72.8974	1274.41	71.1003	1274.41	71.5173	1274.41	70.6814	1274.41	73.1484	1274.41	73.6766	1274.41	75.3945	1274.41	75.8651	1274.41	76.401
1319.82	87.148	1319.82	87.0031	1319.82	87.0111	1319.82	86.6168	1319.82	86.555	1319.82	86.0163	1319.82	85.7555	1319.82	85.1958	1319.82	84.6001	1319.82	84.0968	1319.82	83.0868	1319.82	82.6338	1319.82	81.2442	1319.82	80.8396	1319.82	79.214	1319.82	79.1649	1319.82	77.4507	1319.82	78.39	1319.82	76.7105	1319.82	78.4412	1319.82	76.9738	1319.82	78.4416	1319.82	77.1937	1319.82	77.7622	1319.82	76.5042	1319.82	75.9606	1319.82	74.3309	1319.82	72.6913	1319.82	70.0362	1319.82	70.6041	1319.82	67.7888	1319.82	73.8383	1319.82	72.9162	1319.82	76.5366	1319.82	76.192	1319.82	77.3042
1366.7	87.3518	1366.7	87.2635	1366.7	87.1817	1366.7	86.9288	1366.7	86.7552	1366.7	86.3633	1366.7	86.0706	1366.7	85.5486	1366.7	85.1084	1366.7	84.4288	1366.7	83.8231	1366.7	82.9868	1366.7	82.1665	1366.7	81.3652	1366.7	80.3004	1366.7	79.9634	1366.7	78.9706	1366.7	79.2877	1366.7	78.6665	1366.7	79.2179	1366.7	78.4011	1366.7	78.8289	1366.7	77.1736	1366.7	77.151	1366.7	74.5514	1366.7	73.3015	1366.7	69.8034	1366.7	68.4598	1366.7	62.6215	1366.7	72.2467	1366.7	69.7386	1366.7	76.0925	1366.7	74.9269	1366.7	77.97	1366.7	77.4838	1366.7	78.4046
1413.57	88.0052	1413.57	87.8874	1413.57	87.795	1413.57	87.4958	1413.57	87.3206	1413.57	86.9529	1413.57	86.7317	1413.57	86.3273	1413.57	86.092	1413.57	85.4942	1413.57	85.1966	1413.57	84.1371	1413.57	83.6219	1413.57	81.8975	1413.57	80.8636	1413.57	78.77	1413.57	76.7207	1413.57	77.0178	1413.57	74.9164	1413.57	78.8291	1413.57	77.5749	1413.57	80.526	1413.57	79.0742	1413.57	80.4156	1413.57	78.4785	1413.57	77.7046	1413.57	75.1173	1413.57	68.8077	1413.57	63.0143	1413.57	69.3668	1413.57	71.3987	1413.57	78.0479	1413.57	78.4377	1413.57	81.1263	1413.57	81.2403	1413.57	82.017
1463.38	88.1601	1463.38	87.9398	1463.38	87.9346	1463.38	87.3017	1463.38	87.339	1463.38	86.441	1463.38	86.5098	1463.38	85.6892	1463.38	85.606	1463.38	85.154	1463.38	84.7216	1463.38	84.4408	1463.38	83.7001	1463.38	82.9807	1463.38	82.0353	1463.38	80.4136	1463.38	79.1112	1463.38	77.4698	1463.38	75.9719	1463.38	77.6834	1463.38	77.4643	1463.38	79.8701	1463.38	79.7149	1463.38	80.7216	1463.38	79.9115	1463.38	79.3494	1463.38	77.7283	1463.38	74.4014	1463.38	71.4397	1463.38	61.6577	1463.38	66.4111	1463.38	74.7449	1463.38	76.2772	1463.38	79.1427	1463.38	79.7308	1463.38	80.4949
1516.11	87.9872	1516.11	87.7421	1516.11	87.6985	1516.11	87.0278	1516.11	86.8794	1516.11	85.983	1516.11	85.665	1516.11	84.8764	1516.11	84.4046	1516.11	84.059	1516.11	83.4849	1516.11	83.5543	1516.11	82.7934	1516.11	82.7709	1516.11	81.6754	1516.11	80.8448	1516.11	79.3284	1516.11	76.8689	1516.11	75.0195	1516.11	72.8838	1516.11	72.7735	1516.11	76.7316	1516.11	76.4542	1516.11	79.5637	1516.11	78.0996	1516.11	79.7899	1516.11	76.9773	1516.11	77.129	1516.11	72.3532	1516.11	68.5118	1516.11	65.9967	1516.11	70.7705	1516.11	74.2777	1516.11	77.4929	1516.11	78.2622	1516.11	79.2657
1568.85	88.3522	1568.85	88.2247	1568.85	87.9521	1568.85	87.601	1568.85	86.9723	1568.85	86.4856	1568.85	85.4027	1568.85	84.9335	1568.85	83.4344	1568.85	83.3089	1568.85	81.6429	1568.85	82.3507	1568.85	80.5777	1568.85	81.9857	1568.85	79.7915	1568.85	81.0637	1568.85	78.097	1568.85	78.6471	1568.85	73.7842	1568.85	74.8197	1568.85	67.107	1568.85	75.3103	1568.85	74.68	1568.85	78.9211	1568.85	78.2455	1568.85	80.3825	1568.85	78.5636	1568.85	79.1401	1568.85	76.3369	1568.85	73.9861	1568.85	72.0314	1568.85	65.1203	1568.85	72.7439	1568.85	74.465	1568.85	76.3578	1568.85	77.1951
1624.51	88.573	1624.51	88.5589	1624.51	88.2256	1624.51	88.1328	1624.51	87.5416	1624.51	87.264	1624.51	86.4573	1624.51	85.9846	1624.51	84.8217	1624.51	84.4746	1624.51	82.5846	1624.51	83.137	1624.51	80.2737	1624.51	82.3154	1624.51	78.9405	1624.51	81.6571	1624.51	78.1521	1624.51	80.2495	1624.51	76.3539	1624.51	77.3602	1624.51	72.6122	1624.51	74.6867	1624.51	70.7169	1624.51	76.5061	1624.51	74.6056	1624.51	78.0994	1624.51	76.5754	1624.51	77.2215	1624.51	75.4844	1624.51	72.9256	1624.51	70.1698	1624.51	57.7659	1624.51	65.874	1624.51	68.9381	1624.51	72.1569	1624.51	73.1139
1681.64	88.5157	1681.64	88.4213	1681.64	88.2492	1681.64	87.991	1681.64	87.6086	1681.64	87.2541	1681.64	86.5982	1681.64	86.2409	1681.64	85.2442	1681.64	85.0026	1681.64	83.6067	1681.64	83.6719	1681.64	81.8337	1681.64	82.4731	1681.64	80.232	1681.64	81.3777	1681.64	79.0287	1681.64	79.7899	1681.64	77.6861	1681.64	77.1076	1681.64	74.8876	1681.64	74.4771	1681.64	70.6586	1681.64	75.2907	1681.64	72.7831	1681.64	76.7313	1681.64	75.1778	1681.64	76.0975	1681.64	74.1217	1681.64	72.2437	1681.64	68.299	1681.64	63.9908	1681.64	57.2855	1681.64	69.303	1681.64	70.0244	1681.64	72.1006
1741.7	88.2693	1741.7	88.1898	1741.7	87.9632	1741.7	87.774	1741.7	87.22	1741.7	87.0346	1741.7	86.0631	1741.7	85.9807	1741.7	84.6187	1741.7	84.6787	1741.7	83.0387	1741.7	83.3096	1741.7	81.4024	1741.7	82.0825	1741.7	79.7156	1741.7	80.8928	1741.7	77.9648	1741.7	79.3443	1741.7	75.9895	1741.7	77.3614	1741.7	73.3915	1741.7	75.8209	1741.7	71.6331	1741.7	75.9913	1741.7	73.5573	1741.7	76.7721	1741.7	74.9578	1741.7	76.094	1741.7	73.5116	1741.7	72.4251	1741.7	66.9731	1741.7	66.2222	1741.7	61.7156	1741.7	71.1115	1741.7	71.4632	1741.7	73.4246
1803.22	88.3317	1803.22	88.4256	1803.22	87.8049	1803.22	88.0952	1803.22	86.8515	1803.22	87.3428	1803.22	85.5126	1803.22	86.1593	1803.22	83.9032	1803.22	84.6205	1803.22	82.1938	1803.22	83.0952	1803.22	80.4927	1803.22	82.0884	1803.22	78.7713	1803.22	81.4537	1803.22	76.7732	1803.22	80.4942	1803.22	74.1247	1803.22	78.7074	1803.22	71.6288	1803.22	76.4104	1803.22	71.7993	1803.22	75.8023	1803.22	73.49	1803.22	76.4918	1803.22	74.5172	1803.22	75.4034	1803.22	73.2167	1803.22	70.2309	1803.22	65.5639	1803.22	61.6086	1803.22	65.4315	1803.22	72.2903	1803.22	73.7572	1803.22	75.1126
1866.21	88.4505	1866.21	88.4752	1866.21	87.9493	1866.21	88.0862	1866.21	86.963	1866.21	87.3671	1866.21	85.5521	1866.21	86.3735	1866.21	83.8501	1866.21	85.1368	1866.21	82.0134	1866.21	83.7875	1866.21	80.1182	1866.21	82.5931	1866.21	78.1986	1866.21	81.5725	1866.21	76.421	1866.21	80.316	1866.21	74.7776	1866.21	78.4502	1866.21	72.726	1866.21	76.3146	1866.21	70.8804	1866.21	75.9366	1866.21	72.2111	1866.21	76.9661	1866.21	73.682	1866.21	76.4856	1866.21	72.1648	1866.21	72.7206	1866.21	64.1981	1866.21	62.0325	1866.21	64.6307	1866.21	69.3761	1866.21	72.256	1866.21	73.2425
1932.13	88.3262	1932.13	88.257	1932.13	87.911	1932.13	87.7926	1932.13	87.0017	1932.13	87.0397	1932.13	85.6637	1932.13	86.0452	1932.13	83.9409	1932.13	84.7923	1932.13	81.8409	1932.13	83.372	1932.13	79.6502	1932.13	82.1572	1932.13	78.0042	1932.13	81.2719	1932.13	76.8192	1932.13	80.049	1932.13	75.1493	1932.13	77.8966	1932.13	72.0099	1932.13	75.5215	1932.13	69.0685	1932.13	75.8053	1932.13	71.6242	1932.13	77.4924	1932.13	72.934	1932.13	77.3069	1932.13	70.6687	1932.13	73.6372	1932.13	60.801	1932.13	65.7621	1932.13	65.709	1932.13	71.9974	1932.13	72.803	1932.13	74.5064
1999.51	87.7543	1999.51	87.8118	1999.51	87.2126	1999.51	87.4652	1999.51	86.197	1999.51	86.7914	1999.51	84.8395	1999.51	85.8102	1999.51	83.2207	1999.51	84.5038	1999.51	81.2072	1999.51	82.926	1999.51	78.8472	1999.51	81.4161	1999.51	77.0337	1999.51	80.4633	1999.51	76.1797	1999.51	79.6653	1999.51	74.7812	1999.51	77.9336	1999.51	71.2296	1999.51	74.9608	1999.51	67.0574	1999.51	73.7881	1999.51	71.1533	1999.51	75.5068	1999.51	73.8051	1999.51	75.446	1999.51	72.9142	1999.51	71.6387	1999.51	66.3049	1999.51	57.2966	1999.51	67.2877	1999.51	69.8212	1999.51	73.666	1999.51	74.1789
2069.82	87.9262	2069.82	88.0889	2069.82	87.2547	2069.82	87.7906	2069.82	86.1009	2069.82	87.1229	2069.82	84.5888	2069.82	86.1758	2069.82	82.8668	2069.82	84.9889	2069.82	80.8718	2069.82	83.5526	2069.82	78.3912	2069.82	81.9332	2069.82	75.7936	2069.82	80.594	2069.82	74.0921	2069.82	79.9495	2069.82	72.9094	2069.82	79.1318	2069.82	70.4581	2069.82	77.1913	2069.82	64.3241	2069.82	74.9406	2069.82	67.5261	2069.82	75.587	2069.82	72.2852	2069.82	77.0072	2069.82	72.163	2069.82	75.8953	2069.82	67.3642	2069.82	69.949	2069.82	65.0888	2069.82	59.9575	2069.82	70.6416	2069.82	70.4972
2143.07	88.0727	2143.07	88.17	2143.07	87.5223	2143.07	87.8903	2143.07	86.4931	2143.07	87.3347	2143.07	85.006	2143.07	86.5674	2143.07	83.1219	2143.07	85.558	2143.07	80.9573	2143.07	84.2558	2143.07	78.625	2143.07	82.7552	2143.07	76.1425	2143.07	81.3699	2143.07	73.6534	2143.07	80.3385	2143.07	71.9966	2143.07	79.1992	2143.07	71.1647	2143.07	77.458	2143.07	68.144	2143.07	75.8747	2143.07	63.4641	2143.07	76.0313	2143.07	70.0538	2143.07	76.6655	2143.07	71.4634	2143.07	75.1868	2143.07	66.1367	2143.07	69.6384	2143.07	62.2894	2143.07	67.8329	2143.07	70.8412	2143.07	71.8898
2219.24	87.4447	2219.24	87.5229	2219.24	87.0015	2219.24	87.2569	2219.24	86.0486	2219.24	86.6947	2219.24	84.5674	2219.24	85.9575	2219.24	82.8724	2219.24	85.0145	2219.24	80.9446	2219.24	83.7063	2219.24	78.4359	2219.24	82.0922	2219.24	75.9379	2219.24	80.5406	2219.24	73.3059	2219.24	79.2615	2219.24	70.4525	2219.24	78.1165	2219.24	69.8352	2219.24	76.7604	2219.24	67.3741	2219.24	74.8011	2219.24	66.004	2219.24	74.5829	2219.24	70.9012	2219.24	75.6217	2219.24	70.4331	2219.24	74.3668	2219.24	63.3551	2219.24	68.2693	2219.24	62.8865	2219.24	64.8498	2219.24	70.885	2219.24	71.4011
2296.88	86.8706	2296.88	87.0482	2296.88	86.2842	2296.88	86.8782	2296.88	85.2656	2296.88	86.4427	2296.88	83.769	2296.88	85.7802	2296.88	81.8183	2296.88	84.8563	2296.88	79.6063	2296.88	83.5884	2296.88	77.3473	2296.88	82.0003	2296.88	75.265	2296.88	80.5264	2296.88	73.3593	2296.88	79.4265	2296.88	71.3269	2296.88	78.1636	2296.88	69.1718	2296.88	76.5034	2296.88	65.5852	2296.88	74.7642	2296.88	63.5548	2296.88	74.0205	2296.88	68.9037	2296.88	74.3989	2296.88	69.9218	2296.88	73.8821	2296.88	63.8039	2296.88	69.97	2296.88	63.2255	2296.88	62.0983	2296.88	69.9248	2296.88	69.1551
2378.91	87.1334	2378.91	87.4096	2378.91	86.4701	2378.91	87.3137	2378.91	85.4578	2378.91	86.9145	2378.91	84.1335	2378.91	86.3248	2378.91	82.4801	2378.91	85.5528	2378.91	80.4987	2378.91	84.4452	2378.91	78.1703	2378.91	82.9144	2378.91	75.6175	2378.91	81.196	2378.91	73.5358	2378.91	79.8363	2378.91	71.5813	2378.91	78.5688	2378.91	69.1672	2378.91	77.0307	2378.91	66.2267	2378.91	75.692	2378.91	61.4901	2378.91	74.8037	2378.91	66.9815	2378.91	75.0953	2378.91	68.5164	2378.91	74.4294	2378.91	62.1449	2378.91	70.1089	2378.91	62.6191	2378.91	64.6469	2378.91	69.7172	2378.91	69.2147
2462.4	86.1101	2462.4	86.4639	2462.4	85.4634	2462.4	86.5071	2462.4	84.5761	2462.4	86.2197	2462.4	83.4899	2462.4	85.6159	2462.4	82.1596	2462.4	84.7775	2462.4	80.5671	2462.4	83.6229	2462.4	78.6386	2462.4	81.9679	2462.4	76.2141	2462.4	80.2178	2462.4	74.0982	2462.4	79.096	2462.4	72.891	2462.4	77.9942	2462.4	71.2126	2462.4	76.2174	2462.4	68.0123	2462.4	74.9093	2462.4	63.5454	2462.4	74.3571	2462.4	66.8896	2462.4	73.8827	2462.4	68.4608	2462.4	73.2004	2462.4	61.0746	2462.4	69.4464	2462.4	63.8398	2462.4	62.3884	2462.4	70.6184	2462.4	69.9034
2548.83	84.7765	2548.83	85.3743	2548.83	83.9732	2548.83	85.6627	2548.83	82.9625	2548.83	85.4646	2548.83	81.8089	2548.83	84.7722	2548.83	80.5603	2548.83	83.8143	2548.83	79.2201	2548.83	82.7811	2548.83	77.7845	2548.83	81.4538	2548.83	75.753	2548.83	79.5882	2548.83	73.2708	2548.83	77.925	2548.83	72.0483	2548.83	77.1887	2548.83	71.2416	2548.83	75.9706	2548.83	69.3212	2548.83	74.0782	2548.83	65.0069	2548.83	72.8091	2548.83	66.3237	2548.83	72.1424	2548.83	67.6733	2548.83	71.7176	2548.83	59.2306	2548.83	68.7048	2548.83	64.3763	2548.83	56.5327	2548.83	69.7939	2548.83	67.0567
2639.65	84.2209	2639.65	85.0547	2639.65	83.3099	2639.65	85.6048	2639.65	82.4353	2639.65	85.6671	2639.65	81.7114	2639.65	85.0973	2639.65	80.9216	2639.65	83.8545	2639.65	79.5568	2639.65	82.2295	2639.65	77.8332	2639.65	80.6912	2639.65	76.3083	2639.65	79.2886	2639.65	74.1763	2639.65	77.6435	2639.65	71.7359	2639.65	76.2055	2639.65	70.697	2639.65	75.2783	2639.65	69.1098	2639.65	73.9311	2639.65	64.5686	2639.65	72.4165	2639.65	67.1996	2639.65	71.6835	2639.65	68.0626	2639.65	71.7045	2639.65	61.3912	2639.65	69.6165	2639.65	61.5489	2639.65	59.4403	2639.65	67.5252	2639.65	63.1341
2731.93	84.8948	2731.93	85.717	2731.93	83.9408	2731.93	86.094	2731.93	83.0048	2731.93	85.8363	2731.93	82.0812	2731.93	85.0038	2731.93	81.3185	2731.93	83.8321	2731.93	80.3601	2731.93	82.3159	2731.93	78.7432	2731.93	80.2981	2731.93	76.8078	2731.93	78.2722	2731.93	74.8316	2731.93	77.007	2731.93	72.3129	2731.93	75.3597	2731.93	70.7915	2731.93	74.007	2731.93	70.8484	2731.93	74.4725	2731.93	67.315	2731.93	74.2126	2731.93	67.1042	2731.93	72.057	2731.93	69.865	2731.93	71.009	2731.93	63.9074	2731.93	70.7601	2731.93	58.5167	2731.93	65.6307	2731.93	64.956	2731.93	53.4914
2828.61	84.2082	2828.61	85.2594	2828.61	83.1018	2828.61	85.8255	2828.61	82.2775	2828.61	85.6538	2828.61	81.6511	2828.61	84.7803	2828.61	81.038	2828.61	83.4411	2828.61	80.4028	2828.61	81.9268	2828.61	79.3909	2828.61	80.284	2828.61	77.7456	2828.61	78.2474	2828.61	75.8858	2828.61	76.5873	2828.61	73.9827	2828.61	75.6863	2828.61	71.5503	2828.61	73.7538	2828.61	70.4267	2828.61	72.4079	2828.61	67.8086	2828.61	74.1347	2828.61	67.2057	2828.61	73.5262	2828.61	70.0546	2828.61	70.7749	2828.61	64.3622	2828.61	70.807	2828.61	61.3961	2828.61	67.4925	2828.61	65.1945	2828.61	56.4341
2928.22	84.2222	2928.22	85.5004	2928.22	82.801	2928.22	86.0443	2928.22	81.8445	2928.22	85.7825	2928.22	81.3181	2928.22	84.782	2928.22	80.9033	2928.22	83.2642	2928.22	80.291	2928.22	81.6682	2928.22	79.2628	2928.22	79.9071	2928.22	77.8733	2928.22	77.8428	2928.22	76.2467	2928.22	76.0707	2928.22	74.1086	2928.22	74.9583	2928.22	71.9837	2928.22	73.7054	2928.22	71.5822	2928.22	72.1881	2928.22	68.9753	2928.22	72.2781	2928.22	67.1895	2928.22	72.9198	2928.22	69.397	2928.22	71.1263	2928.22	63.0812	2928.22	70.269	2928.22	61.2641	2928.22	68.564	2928.22	64.3355	2928.22	55.2175
3030.76	85.1488	3030.76	86.1715	3030.76	83.8376	3030.76	86.5815	3030.76	82.7879	3030.76	86.2226	3030.76	82.2667	3030.76	85.1006	3030.76	81.8674	3030.76	83.4453	3030.76	80.8294	3030.76	81.7506	3030.76	79.445	3030.76	80.2348	3030.76	77.9509	3030.76	78.2475	3030.76	76.1992	3030.76	76.3165	3030.76	74.7313	3030.76	74.9967	3030.76	72.6035	3030.76	73.3658	3030.76	71.7289	3030.76	72.1047	3030.76	69.5149	3030.76	72.6497	3030.76	66.155	3030.76	73.3065	3030.76	70.4568	3030.76	71.0585	3030.76	65.3379	3030.76	70.4679	3030.76	59.7292	3030.76	69.0374	3030.76	63.9697	3030.76	60.3183
3137.7	84.4122	3137.7	85.7814	3137.7	82.738	3137.7	86.3233	3137.7	81.7793	3137.7	86.0179	3137.7	81.4889	3137.7	84.967	3137.7	81.3129	3137.7	83.3798	3137.7	80.9353	3137.7	81.7321	3137.7	79.9056	3137.7	80.3681	3137.7	78.5881	3137.7	78.6625	3137.7	77.2091	3137.7	76.3909	3137.7	75.7617	3137.7	74.8966	3137.7	73.2947	3137.7	73.2793	3137.7	72.6958	3137.7	71.4316	3137.7	72.0252	3137.7	72.5467	3137.7	67.3062	3137.7	73.8795	3137.7	70.5104	3137.7	71.3673	3137.7	66.9653	3137.7	69.9419	3137.7	61.8273	3137.7	69.8253	3137.7	64.7408	3137.7	62.9552
3249.02	85.3508	3249.02	86.4846	3249.02	83.6196	3249.02	86.7404	3249.02	82.1612	3249.02	86.3185	3249.02	81.7758	3249.02	85.4659	3249.02	81.7244	3249.02	84.0702	3249.02	81.2362	3249.02	82.1851	3249.02	79.982	3249.02	80.629	3249.02	78.0519	3249.02	79.1846	3249.02	75.946	3249.02	77.0863	3249.02	74.139	3249.02	75.757	3249.02	72.7205	3249.02	74.327	3249.02	70.51	3249.02	71.3274	3249.02	71.2084	3249.02	70.3765	3249.02	67.5097	3249.02	73.7596	3249.02	70.1922	3249.02	72.4014	3249.02	67.5477	3249.02	69.8498	3249.02	61.8596	3249.02	69.6991	3249.02	65.4553	3249.02	64.8428
3363.28	85.2957	3363.28	86.7093	3363.28	83.3027	3363.28	86.9743	3363.28	81.9016	3363.28	86.3428	3363.28	81.6507	3363.28	85.4464	3363.28	82.0432	3363.28	84.3497	3363.28	82.0223	3363.28	82.6812	3363.28	81.1164	3363.28	80.9303	3363.28	79.5097	3363.28	79.4919	3363.28	77.6794	3363.28	77.3056	3363.28	75.932	3363.28	75.6954	3363.28	74.2859	3363.28	74.2941	3363.28	71.3376	3363.28	72.219	3363.28	71.2979	3363.28	68.9855	3363.28	68.7003	3363.28	72.1563	3363.28	71.2177	3363.28	72.0685	3363.28	69.2282	3363.28	69.2907	3363.28	63.9476	3363.28	69.3304	3363.28	67.3072	3363.28	62.8315
3481.93	86.1484	3481.93	87.3581	3481.93	84.2597	3481.93	87.6969	3481.93	82.8047	3481.93	87.2934	3481.93	82.1994	3481.93	86.3226	3481.93	81.8449	3481.93	84.9693	3481.93	81.594	3481.93	83.3873	3481.93	80.7818	3481.93	81.6459	3481.93	79.3076	3481.93	80.116	3481.93	77.2868	3481.93	78.1995	3481.93	74.2065	3481.93	76.2435	3481.93	73.5469	3481.93	75.0605	3481.93	71.5101	3481.93	72.7479	3481.93	72.0602	3481.93	70.4798	3481.93	69.5522	3481.93	72.4499	3481.93	71.763	3481.93	72.6811	3481.93	70.587	3481.93	69.416	3481.93	64.8194	3481.93	69.8219	3481.93	67.567	3481.93	64.2946
3604.98	85.8605	3604.98	87.1106	3604.98	83.9849	3604.98	87.4451	3604.98	82.6741	3604.98	86.8715	3604.98	82.4689	3604.98	85.7739	3604.98	82.417	3604.98	84.5915	3604.98	82.239	3604.98	83.0742	3604.98	81.7447	3604.98	80.9784	3604.98	80.4772	3604.98	79.2193	3604.98	78.6656	3604.98	77.6121	3604.98	75.8865	3604.98	75.6895	3604.98	73.9598	3604.98	74.2341	3604.98	71.6498	3604.98	72.4845	3604.98	70.1194	3604.98	69.5043	3604.98	69.0376	3604.98	70.3142	3604.98	70.1419	3604.98	71.4522	3604.98	70.8279	3604.98	65.6265	3604.98	67.4514	3604.98	67.5542	3604.98	69.1291	3604.98	62.1482
3732.42	86.8331	3732.42	88.2133	3732.42	84.9421	3732.42	88.655	3732.42	83.3496	3732.42	88.0921	3732.42	83.206	3732.42	86.8923	3732.42	83.5414	3732.42	85.4886	3732.42	83.098	3732.42	84.0042	3732.42	82.189	3732.42	81.8775	3732.42	80.3244	3732.42	79.9455	3732.42	77.949	3732.42	78.109	3732.42	75.7483	3732.42	76.2533	3732.42	73.1476	3732.42	75.2754	3732.42	72.2297	3732.42	73.3015	3732.42	69.8362	3732.42	71.8702	3732.42	69.3356	3732.42	69.089	3732.42	71.3627	3732.42	72.4327	3732.42	70.6587	3732.42	67.486	3732.42	68.8993	3732.42	67.5009	3732.42	69.8366	3732.42	61.5233
3864.26	86.7441	3864.26	87.8094	3864.26	84.8677	3864.26	87.9697	3864.26	83.4165	3864.26	87.7161	3864.26	83.2232	3864.26	86.931	3864.26	83.8642	3864.26	85.4804	3864.26	83.582	3864.26	83.7436	3864.26	82.4651	3864.26	81.628	3864.26	81.4186	3864.26	79.6221	3864.26	79.422	3864.26	77.9185	3864.26	77.531	3864.26	75.0273	3864.26	74.1963	3864.26	74.6523	3864.26	72.7701	3864.26	71.8912	3864.26	69.0064	3864.26	72.3393	3864.26	68.3496	3864.26	68.1407	3864.26	69.3802	3864.26	71.9334	3864.26	68.6429	3864.26	67.8584	3864.26	68.553	3864.26	66.5073	3864.26	70.4682	3864.26	54.8431
4000.49	87.4134	4000.49	88.514	4000.49	85.5826	4000.49	88.7083	4000.49	84.125	4000.49	88.2327	4000.49	84.1517	4000.49	87.3109	4000.49	84.5726	4000.49	85.763	4000.49	84.5892	4000.49	83.9835	4000.49	83.1641	4000.49	82.0232	4000.49	81.349	4000.49	79.2782	4000.49	79.1872	4000.49	77.6283	4000.49	77.4402	4000.49	75.5082	4000.49	74.2564	4000.49	74.793	4000.49	73.3613	4000.49	73.3401	4000.49	70.8513	4000.49	72.4455	4000.49	68.9519	4000.49	70.0047	4000.49	69.5196	4000.49	70.8036	4000.49	70.7632	4000.49	66.784	4000.49	65.6878	4000.49	66.6018	4000.49	69.3264	4000.49	50.0803
4141.11	88.1536	4141.11	88.8908	4141.11	86.6672	4141.11	88.7863	4141.11	85.0441	4141.11	88.1308	4141.11	84.7908	4141.11	87.1864	4141.11	85.2213	4141.11	85.5891	4141.11	85.4171	4141.11	83.6698	4141.11	84.6266	4141.11	81.8035	4141.11	82.8308	4141.11	79.2933	4141.11	80.4383	4141.11	77.4438	4141.11	78.0156	4141.11	75.67	4141.11	75.3578	4141.11	73.4071	4141.11	74.0084	4141.11	72.2481	4141.11	70.6534	4141.11	71.1923	4141.11	70.1546	4141.11	70.7932	4141.11	68.112	4141.11	71.4069	4141.11	70.0425	4141.11	68.8429	4141.11	66.9106	4141.11	68.3523	4141.11	68.7089	4141.11	53.8224
4287.6	88.9837	4287.6	89.4975	4287.6	87.492	4287.6	88.9969	4287.6	85.807	4287.6	88.255	4287.6	85.434	4287.6	87.0815	4287.6	85.9109	4287.6	85.3838	4287.6	86.1002	4287.6	83.1506	4287.6	84.9154	4287.6	80.9609	4287.6	82.7483	4287.6	78.7948	4287.6	80.4503	4287.6	76.6701	4287.6	78.0371	4287.6	75.2919	4287.6	75.5338	4287.6	73.3481	4287.6	73.9669	4287.6	73.4868	4287.6	71.7775	4287.6	70.0567	4287.6	70.4582	4287.6	71.2826	4287.6	69.2988	4287.6	70.7847	4287.6	70.0355	4287.6	68.2929	4287.6	66.9968	4287.6	66.9316	4287.6	69.2527	4287.6	59.3846
4438.48	89.7888	4438.48	89.8083	4438.48	88.7406	4438.48	89.2573	4438.48	86.9494	4438.48	88.3391	4438.48	86.418	4438.48	86.9206	4438.48	86.9389	4438.48	85.0605	4438.48	86.5471	4438.48	82.9138	4438.48	85.5456	4438.48	80.6263	4438.48	83.6513	4438.48	78.4403	4438.48	80.787	4438.48	76.8322	4438.48	78.0207	4438.48	75.2503	4438.48	75.868	4438.48	72.8707	4438.48	74.0373	4438.48	73.0509	4438.48	72.1696	4438.48	69.3986	4438.48	69.6168	4438.48	72.0974	4438.48	67.1578	4438.48	70.7467	4438.48	70.1846	4438.48	70.3037	4438.48	66.6462	4438.48	64.7948	4438.48	69.1842	4438.48	59.5651
4595.21	89.9731	4595.21	89.8131	4595.21	89.265	4595.21	89.295	4595.21	87.641	4595.21	88.4793	4595.21	86.4115	4595.21	87.1269	4595.21	86.3532	4595.21	85.1236	4595.21	86.2558	4595.21	82.5495	4595.21	85.209	4595.21	80.3299	4595.21	82.9296	4595.21	78.5588	4595.21	80.5044	4595.21	76.3577	4595.21	77.6376	4595.21	75.184	4595.21	75.4177	4595.21	73.284	4595.21	73.2084	4595.21	73.9884	4595.21	72.4901	4595.21	69.5269	4595.21	70.7958	4595.21	71.7044	4595.21	67.9581	4595.21	70.2672	4595.21	70.1697	4595.21	70.2959	4595.21	64.6451	4595.21	65.0258	4595.21	67.3558	4595.21	61.7458
4756.35	89.9923	4756.35	89.773	4756.35	89.5375	4756.35	89.3029	4756.35	88.296	4756.35	88.7143	4756.35	87.13	4756.35	87.3797	4756.35	86.8969	4756.35	85.3443	4756.35	86.3453	4756.35	83.1842	4756.35	85.1736	4756.35	80.9411	4756.35	83.2228	4756.35	79.2391	4756.35	80.7652	4756.35	77.0282	4756.35	77.7148	4756.35	75.7003	4756.35	76.0905	4756.35	73.248	4756.35	72.0038	4756.35	73.4045	4756.35	71.9	4756.35	72.0142	4756.35	67.104	4756.35	71.8805	4756.35	66.7984	4756.35	70.7915	4756.35	69.6053	4756.35	71.496	4756.35	62.8263	4756.35	66.6941	4756.35	66.4604	4756.35	64.0913
4924.8	89.4445	4924.8	89.0909	4924.8	89.0912	4924.8	88.8534	4924.8	88.2156	4924.8	88.3516	4924.8	87.3733	4924.8	87.197	4924.8	86.9582	4924.8	85.3974	4924.8	86.296	4924.8	83.6903	4924.8	84.5521	4924.8	81.5183	4924.8	81.9825	4924.8	80.0158	4924.8	79.0236	4924.8	77.6133	4924.8	76.0884	4924.8	76.3942	4924.8	73.9818	4924.8	74.6778	4924.8	70.4225	4924.8	73.5749	4924.8	72.3232	4924.8	71.8583	4924.8	66.3473	4924.8	71.8733	4924.8	67.34	4924.8	71.8218	4924.8	68.4767	4924.8	72.0572	4924.8	62.6897	4924.8	66.1144	4924.8	66.5585	4924.8	64.5224
5097.66	88.4372	5097.66	88.2366	5097.66	88.3825	5097.66	88.5034	5097.66	87.5521	5097.66	88.5582	5097.66	86.8884	5097.66	87.7264	5097.66	86.3607	5097.66	86.3396	5097.66	85.4223	5097.66	84.5622	5097.66	83.5441	5097.66	82.6122	5097.66	80.7441	5097.66	80.3304	5097.66	78.0098	5097.66	78.2572	5097.66	75.5715	5097.66	76.2731	5097.66	73.4038	5097.66	74.0038	5097.66	70.8226	5097.66	72.719	5097.66	71.2846	5097.66	72.3149	5097.66	66.1542	5097.66	71.2589	5097.66	64.6536	5097.66	70.5291	5097.66	68.4255	5097.66	70.8887	5097.66	60.5917	5097.66	66.0431	5097.66	65.6879	5097.66	65.3768
5277.83	87.5506	5277.83	87.7242	5277.83	87.371	5277.83	88.4923	5277.83	86.8083	5277.83	88.5047	5277.83	86.3306	5277.83	87.7431	5277.83	85.9655	5277.83	86.0674	5277.83	84.9581	5277.83	84.0603	5277.83	83.172	5277.83	81.8255	5277.83	80.3188	5277.83	79.4414	5277.83	77.6475	5277.83	77.6677	5277.83	74.8113	5277.83	75.7599	5277.83	71.7958	5277.83	73.6465	5277.83	70.4846	5277.83	71.592	5277.83	68.1149	5277.83	71.7042	5277.83	64.4649	5277.83	68.3094	5277.83	66.9716	5277.83	71.1568	5277.83	66.5885	5277.83	70.2098	5277.83	53.8938	5277.83	66.4675	5277.83	63.9181	5277.83	64.8069
5463.87	87.9731	5463.87	88.2157	5463.87	87.984	5463.87	88.9138	5463.87	87.2593	5463.87	88.9547	5463.87	86.6183	5463.87	87.6704	5463.87	86.1726	5463.87	85.6876	5463.87	84.915	5463.87	83.3809	5463.87	83.0094	5463.87	81.2644	5463.87	80.5892	5463.87	78.7227	5463.87	77.7205	5463.87	76.8788	5463.87	74.4583	5463.87	74.5579	5463.87	71.1441	5463.87	73.1086	5463.87	70.3047	5463.87	71.5736	5463.87	67.0612	5463.87	70.9018	5463.87	65.5216	5463.87	66.7287	5463.87	66.512	5463.87	68.6205	5463.87	66.0107	5463.87	69.5232	5463.87	61.1098	5463.87	64.4119	5463.87	61.2817	5463.87	66.1137
5657.23	88.7143	5657.23	89.0398	5657.23	88.6631	5657.23	89.4769	5657.23	87.703	5657.23	89.034	5657.23	86.4626	5657.23	87.3703	5657.23	85.7482	5657.23	84.9452	5657.23	84.6608	5657.23	82.6716	5657.23	82.9734	5657.23	80.3196	5657.23	80.4392	5657.23	77.9845	5657.23	77.765	5657.23	76.5821	5657.23	74.6644	5657.23	74.2204	5657.23	72.7716	5657.23	73.353	5657.23	70.978	5657.23	70.4801	5657.23	67.7679	5657.23	69.7505	5657.23	68.565	5657.23	66.6784	5657.23	67.8015	5657.23	68.8505	5657.23	66.4211	5657.23	68.4575	5657.23	58.9299	5657.23	62.4656	5657.23	63.7148	5657.23	65.6413
5856.45	89.086	5856.45	89.3148	5856.45	89.1361	5856.45	89.5647	5856.45	88.249	5856.45	88.7464	5856.45	86.8952	5856.45	86.6374	5856.45	86.2611	5856.45	84.2627	5856.45	85.3793	5856.45	82.2953	5856.45	83.8177	5856.45	80.4051	5856.45	81.654	5856.45	78.526	5856.45	78.9338	5856.45	76.6401	5856.45	76.4529	5856.45	74.5813	5856.45	73.915	5856.45	74.0385	5856.45	71.4599	5856.45	71.3062	5856.45	67.555	5856.45	70.0145	5856.45	68.3796	5856.45	67.1955	5856.45	67.1609	5856.45	69.5721	5856.45	66.6812	5856.45	68.9066	5856.45	62.6831	5856.45	61.5876	5856.45	61.1539	5856.45	66.1212
6062.99	89.3041	6062.99	89.4138	6062.99	89.5139	6062.99	89.3087	6062.99	88.728	6062.99	87.9086	6062.99	87.2572	6062.99	85.7484	6062.99	86.5198	6062.99	84.192	6062.99	85.911	6062.99	82.7986	6062.99	84.6833	6062.99	80.9435	6062.99	82.6737	6062.99	78.9611	6062.99	79.8461	6062.99	76.4728	6062.99	76.988	6062.99	74.7237	6062.99	74.0283	6062.99	73.8777	6062.99	71.3309	6062.99	71.2918	6062.99	69.1399	6062.99	68.6805	6062.99	68.7429	6062.99	68.5169	6062.99	67.2326	6062.99	69.3015	6062.99	66.4649	6062.99	68.4534	6062.99	64.0272	6062.99	59.6882	6062.99	62.4076	6062.99	65.8544
6276.86	89.173	6276.86	89.0715	6276.86	89.5767	6276.86	88.5083	6276.86	88.9818	6276.86	86.9964	6276.86	87.2996	6276.86	85.6327	6276.86	86.6836	6276.86	84.8968	6276.86	86.3031	6276.86	83.1334	6276.86	85.122	6276.86	81.1911	6276.86	83.1378	6276.86	78.8229	6276.86	80.3022	6276.86	76.2605	6276.86	77.3348	6276.86	74.9863	6276.86	74.4739	6276.86	72.6843	6276.86	72.0449	6276.86	70.3182	6276.86	69.3872	6276.86	70.0818	6276.86	70.1587	6276.86	67.6552	6276.86	68.5584	6276.86	68.7665	6276.86	68.1874	6276.86	68.5853	6276.86	63.7737	6276.86	62.0413	6276.86	61.2257	6276.86	66.3515
6498.05	89.2791	6498.05	88.9467	6498.05	89.7235	6498.05	87.9843	6498.05	89.4246	6498.05	86.6113	6498.05	87.7266	6498.05	86.0445	6498.05	86.9057	6498.05	85.2386	6498.05	86.6837	6498.05	83.3576	6498.05	85.456	6498.05	81.0679	6498.05	83.4101	6498.05	78.4397	6498.05	80.6702	6498.05	75.8361	6498.05	77.3431	6498.05	74.2259	6498.05	74.0311	6498.05	71.5976	6498.05	71.512	6498.05	70.4718	6498.05	70.1077	6498.05	69.4828	6498.05	69.9549	6498.05	68.4514	6498.05	66.1897	6498.05	67.3143	6498.05	66.0244	6498.05	67.958	6498.05	65.3339	6498.05	61.2806	6498.05	64.2763	6498.05	65.4856
6726.56	89.3429	6726.56	88.9471	6726.56	89.7533	6726.56	87.6115	6726.56	89.4944	6726.56	86.7627	6726.56	87.6923	6726.56	86.5331	6726.56	86.8369	6726.56	85.3259	6726.56	86.6811	6726.56	83.0261	6726.56	85.406	6726.56	80.557	6726.56	83.2582	6726.56	77.891	6726.56	79.8951	6726.56	75.9583	6726.56	76.8023	6726.56	73.5618	6726.56	74.0731	6726.56	70.254	6726.56	71.7367	6726.56	70.0512	6726.56	68.6526	6726.56	69.1243	6726.56	68.503	6726.56	64.9178	6726.56	65.3776	6726.56	66.7338	6726.56	67.3638	6726.56	66.7952	6726.56	62.8644	6726.56	65.4041	6726.56	64.7419	6726.56	61.461
6963.87	89.4073	6963.87	88.8744	6963.87	89.6084	6963.87	87.7258	6963.87	88.9974	6963.87	87.3207	6963.87	87.0785	6963.87	86.8011	6963.87	86.1581	6963.87	84.9875	6963.87	86.3724	6963.87	82.2807	6963.87	84.983	6963.87	79.4272	6963.87	82.7335	6963.87	77.2416	6963.87	79.5194	6963.87	74.6423	6963.87	76.1356	6963.87	72.031	6963.87	73.6748	6963.87	69.7147	6963.87	70.3881	6963.87	69.1855	6963.87	67.1152	6963.87	66.0875	6963.87	67.5259	6963.87	66.5152	6963.87	64.5947	6963.87	66.5749	6963.87	66.8193	6963.87	65.7577	6963.87	63.4735	6963.87	62.1203	6963.87	64.5917	6963.87	62.6269
7209.96	89.0415	7209.96	88.6701	7209.96	89.0557	7209.96	87.7589	7209.96	88.4482	7209.96	87.5422	7209.96	86.3694	7209.96	86.591	7209.96	85.3649	7209.96	83.9823	7209.96	85.7105	7209.96	81.504	7209.96	84.7467	7209.96	79.177	7209.96	82.5719	7209.96	76.8708	7209.96	79.1611	7209.96	74.3854	7209.96	76.1851	7209.96	72.1567	7209.96	72.9255	7209.96	70.4136	7209.96	70.7863	7209.96	69.1945	7209.96	66.8828	7209.96	67.8149	7209.96	66.6218	7209.96	63.6994	7209.96	63.7655	7209.96	64.7292	7209.96	65.5248	7209.96	65.3529	7209.96	63.823	7209.96	63.9015	7209.96	60.6499	7209.96	62.0513
7464.84	88.8306	7464.84	88.5309	7464.84	88.4363	7464.84	87.7592	7464.84	88.0185	7464.84	87.5371	7464.84	85.8485	7464.84	85.8978	7464.84	84.6316	7464.84	83.6229	7464.84	85.5344	7464.84	81.5695	7464.84	85.2172	7464.84	79.7616	7464.84	82.7361	7464.84	77.3454	7464.84	79.6657	7464.84	74.325	7464.84	76.3689	7464.84	72.4867	7464.84	73.7892	7464.84	70.5835	7464.84	70.1498	7464.84	68.9026	7464.84	68.4041	7464.84	66.7321	7464.84	66.3557	7464.84	64.1976	7464.84	64.5808	7464.84	67.2985	7464.84	65.2827	7464.84	65.7645	7464.84	63.9047	7464.84	63.2523	7464.84	61.2467	7464.84	61.3912
7727.05	88.8818	7727.05	88.3101	7727.05	88.2767	7727.05	87.7233	7727.05	87.9456	7727.05	86.8278	7727.05	86.2094	7727.05	84.9004	7727.05	84.4727	7727.05	83.5396	7727.05	85.5079	7727.05	82.0492	7727.05	85.118	7727.05	79.6226	7727.05	82.5386	7727.05	76.8386	7727.05	79.5602	7727.05	73.8886	7727.05	75.8986	7727.05	71.0639	7727.05	73.0422	7727.05	68.8106	7727.05	69.6932	7727.05	67.2461	7727.05	67.8404	7727.05	66.3099	7727.05	65.8867	7727.05	64.5454	7727.05	64.1662	7727.05	66.5249	7727.05	63.7261	7727.05	65.6662	7727.05	62.8781	7727.05	62.9471	7727.05	61.8965	7727.05	56.395
7999.51	88.8372	7999.51	88.0295	7999.51	88.3322	7999.51	87.2546	7999.51	88.2413	7999.51	85.5905	7999.51	87.1966	7999.51	84.5072	7999.51	85.3901	7999.51	83.6825	7999.51	85.5708	7999.51	81.2894	7999.51	84.5153	7999.51	77.9476	7999.51	82.0842	7999.51	74.2581	7999.51	78.6534	7999.51	71.9371	7999.51	74.9303	7999.51	69.3161	7999.51	71.8456	7999.51	67.842	7999.51	69.2529	7999.51	65.7503	7999.51	67.0934	7999.51	64.9633	7999.51	64.9859	7999.51	65.2188	7999.51	62.3999	7999.51	64.7417	7999.51	63.0583	7999.51	65.7672	7999.51	62.5889	7999.51	63.3589	7999.51	58.5672	7999.51	52.8963
8282.23	88.8349	8282.23	87.7912	8282.23	88.0959	8282.23	86.4074	8282.23	88.0505	8282.23	85.4062	8282.23	87.5591	8282.23	85.2897	8282.23	85.8366	8282.23	83.704	8282.23	85.6349	8282.23	80.4576	8282.23	84.3952	8282.23	77.3833	8282.23	81.6824	8282.23	75.1499	8282.23	77.9584	8282.23	72.981	8282.23	74.202	8282.23	70.4524	8282.23	71.0057	8282.23	68.6717	8282.23	69.7138	8282.23	67.1821	8282.23	67.1046	8282.23	65.4371	8282.23	63.3866	8282.23	67.6486	8282.23	62.6998	8282.23	66.1755	8282.23	62.2738	8282.23	66.2	8282.23	63.9023	8282.23	63.4179	8282.23	57.8344	8282.23	57.9639
8573.73	88.8242	8573.73	87.6861	8573.73	87.6161	8573.73	87.0114	8573.73	87.2079	8573.73	86.4149	8573.73	87.3848	8573.73	85.6532	8573.73	85.9229	8573.73	83.7247	8573.73	85.4829	8573.73	81.493	8573.73	84.2901	8573.73	79.1722	8573.73	81.3358	8573.73	77.3656	8573.73	77.7897	8573.73	74.8062	8573.73	74.2255	8573.73	72.4745	8573.73	71.2752	8573.73	69.8331	8573.73	68.9807	8573.73	68.3699	8573.73	67.1385	8573.73	64.9736	8573.73	64.408	8573.73	68.1694	8573.73	64.0103	8573.73	65.2858	8573.73	62.5788	8573.73	66.7041	8573.73	63.5227	8573.73	63.3629	8573.73	58.2971	8573.73	58.1884
8876.95	88.8973	8876.95	88.7266	8876.95	87.7563	8876.95	88.4033	8876.95	86.7982	8876.95	87.0817	8876.95	87.4598	8876.95	85.7557	8876.95	85.5693	8876.95	83.9771	8876.95	84.5413	8876.95	81.924	8876.95	83.5005	8876.95	79.4646	8876.95	80.5454	8876.95	77.0451	8876.95	77.2991	8876.95	73.9269	8876.95	73.7128	8876.95	71.4105	8876.95	70.7334	8876.95	68.8696	8876.95	67.9289	8876.95	66.9887	8876.95	66.983	8876.95	64.4123	8876.95	63.932	8876.95	66.6686	8876.95	63.863	8876.95	65.5226	8876.95	62.2136	8876.95	65.544	8876.95	64.2863	8876.95	62.2392	8876.95	56.1272	8876.95	57.855
9188.96	89.2607	9188.96	89.6257	9188.96	88.7913	9188.96	89.0454	9188.96	87.6548	9188.96	87.3329	9188.96	88.0293	9188.96	85.9503	9188.96	85.4959	9188.96	83.9874	9188.96	83.0693	9188.96	81.2034	9188.96	81.7729	9188.96	78.2042	9188.96	78.9855	9188.96	75.1358	9188.96	76.2377	9188.96	72.2105	9188.96	72.5608	9188.96	68.8558	9188.96	70.1832	9188.96	66.9345	9188.96	67.0074	9188.96	64.3497	9188.96	66.5303	9188.96	63.8186	9188.96	63.2213	9188.96	63.1832	9188.96	61.8376	9188.96	62.2643	9188.96	60.8701	9188.96	63.4756	9188.96	63.8715	9188.96	58.6925	9188.96	54.105	9188.96	55.0837
9514.16	89.834	9514.16	90.2781	9514.16	90.0865	9514.16	89.203	9514.16	88.6955	9514.16	88.0759	9514.16	87.8649	9514.16	86.3659	9514.16	84.9527	9514.16	83.3959	9514.16	81.5259	9514.16	79.7811	9514.16	80.1839	9514.16	76.6353	9514.16	78.322	9514.16	73.3121	9514.16	75.7981	9514.16	70.5573	9514.16	72.0841	9514.16	67.4786	9514.16	69.4705	9514.16	65.0934	9514.16	66.8678	9514.16	63.1185	9514.16	64.5422	9514.16	62.0031	9514.16	64.1136	9514.16	61.6851	9514.16	61.9199	9514.16	56.6227	9514.16	60.9031	9514.16	61.4641	9514.16	61.6914	9514.16	58.1286	9514.16	51.8599	9514.16	49.5896
9849.61	90.4215	9849.61	90.4615	9849.61	90.6753	9849.61	89.1802	9849.61	89.3989	9849.61	88.2941	9849.61	87.8631	9849.61	85.977	9849.61	84.7596	9849.61	83.2945	9849.61	81.8077	9849.61	80.5373	9849.61	80.2426	9849.61	77.2222	9849.61	78.2215	9849.61	73.4397	9849.61	75.0115	9849.61	69.9851	9849.61	71.6293	9849.61	67.8239	9849.61	67.7484	9849.61	65.1594	9849.61	64.406	9849.61	63.4691	9849.61	63.3702	9849.61	54.818	9849.61	61.3787	9849.61	61.8938	9849.61	60.4428	9849.61	57.6628	9849.61	58.3507	9849.61	60.8641	9849.61	60.9079	9849.61	55.7536	9849.61	51.9915	9849.61	53.7239
10196.8	90.8639	10196.8	90.8384	10196.8	90.9125	10196.8	89.4072	10196.8	90.0209	10196.8	88.0207	10196.8	87.9632	10196.8	85.6594	10196.8	85.2281	10196.8	83.6406	10196.8	82.4362	10196.8	80.5953	10196.8	80.0778	10196.8	77.1516	10196.8	77.5068	10196.8	73.2328	10196.8	73.4726	10196.8	69.7025	10196.8	69.3348	10196.8	67.2367	10196.8	65.5852	10196.8	64.72	10196.8	63.3265	10196.8	63.7798	10196.8	62.3865	10196.8	58.1823	10196.8	61.0126	10196.8	60.0157	10196.8	59.0682	10196.8	58.5069	10196.8	56.0502	10196.8	60.9199	10196.8	57.3482	10196.8	50.259	10196.8	47.9203	10196.8	51.4725
10555.7	91.5019	10555.7	91.0762	10555.7	91.3262	10555.7	89.574	10555.7	90.3493	10555.7	87.5328	10555.7	88.3334	10555.7	85.4949	10555.7	85.6785	10555.7	83.205	10555.7	82.5045	10555.7	79.4443	10555.7	79.8763	10555.7	75.9068	10555.7	76.2249	10555.7	71.8496	10555.7	72.067	10555.7	68.498	10555.7	67.7714	10555.7	65.689	10555.7	64.5559	10555.7	64.3983	10555.7	59.7612	10555.7	61.8782	10555.7	58.0858	10555.7	60.5391	10555.7	60.923	10555.7	59.0597	10555.7	57.4487	10555.7	56.7847	10555.7	54.3697	10555.7	59.6257	10555.7	57.1539	10555.7	53.9962	10555.7	50.1913	10555.7	50.0665
10927.7	91.5507	10927.7	91.1419	10927.7	91.0492	10927.7	89.5728	10927.7	90.1539	10927.7	87.286	10927.7	88.1748	10927.7	85.0603	10927.7	85.3	10927.7	81.7751	10927.7	81.8321	10927.7	78.0627	10927.7	78.9433	10927.7	73.9615	10927.7	74.9602	10927.7	70.0227	10927.7	70.6429	10927.7	66.2813	10927.7	66.4804	10927.7	62.9377	10927.7	61.4415	10927.7	61.752	10927.7	59.2385	10927.7	60.3064	10927.7	52.5371	10927.7	59.2326	10927.7	55.9156	10927.7	58.6719	10927.7	53.3954	10927.7	56.53	10927.7	54.5761	10927.7	56.2985	10927.7	55.6512	10927.7	51.2195	10927.7	32.9829	10927.7	54.1171
11313	91.7706	11313	91.2619	11313	91.2228	11313	89.6096	11313	90.2036	11313	86.8261	11313	88.0852	11313	84.1759	11313	85.095	11313	80.2333	11313	80.7583	11313	76.4079	11313	76.9701	11313	71.3766	11313	72.6401	11313	67.2748	11313	67.1896	11313	63.9607	11313	64.2491	11313	61.3745	11313	60.8059	11313	60.0183	11313	60.4907	11313	59.6563	11313	55.071	11313	58.1684	11313	57.0329	11313	57.8272	11313	51.5178	11313	54.5337	11313	49.7662	11313	56.5098	11313	54.9444	11313	52.3301	11313	52.9853	11313	46.7836
11712.9	91.8708	11712.9	91.3796	11712.9	91.3117	11712.9	89.5604	11712.9	89.9083	11712.9	86.5407	11712.9	87.4986	11712.9	83.0401	11712.9	84.428	11712.9	79.0634	11712.9	80.126	11712.9	73.4406	11712.9	76.5698	11712.9	67.2392	11712.9	72.8727	11712.9	64.2638	11712.9	67.7186	11712.9	62.1395	11712.9	63.8792	11712.9	60.6212	11712.9	62.6372	11712.9	58.8541	11712.9	58.27	11712.9	57.708	11712.9	55.8461	11712.9	58.1951	11712.9	57.045	11712.9	56.9044	11712.9	54.4715	11712.9	55.326	11712.9	53.0206	11712.9	56.786	11712.9	52.0017	11712.9	55.756	11712.9	55.0763	11712.9	47.3529
12126	91.7172	12126	91.2157	12126	91.2987	12126	89.1245	12126	89.8983	12126	86.067	12126	87.204	12126	82.4272	12126	83.4802	12126	77.378	12126	78.3363	12126	70.9722	12126	74.8711	12126	70.1414	12126	70.8237	12126	68.7353	12126	65.5668	12126	66.3215	12126	62.9575	12126	64.3881	12126	60.3527	12126	61.7441	12126	57.4136	12126	60.8802	12126	54.4048	12126	59.3243	12126	55.3198	12126	59.0278	12126	54.2489	12126	57.0953	12126	51.4682	12126	59.4832	12126	57.4905	12126	59.4309	12126	51.1491	12126	46.7339
12553.7	91.6216	12553.7	91.2665	12553.7	91.0636	12553.7	89.1301	12553.7	89.6718	12553.7	85.8044	12553.7	86.4055	12553.7	81.7264	12553.7	82.2207	12553.7	77.0445	12553.7	77.6649	12553.7	74.7547	12553.7	75.0101	12553.7	73.6448	12553.7	72.3793	12553.7	71.3995	12553.7	68.4172	12553.7	68.9646	12553.7	64.8787	12553.7	67.4876	12553.7	59.6759	12553.7	64.0291	12553.7	57.175	12553.7	62.8832	12553.7	57.0415	12553.7	59.7945	12553.7	57.5575	12553.7	59.4672	12553.7	57.913	12553.7	57.0323	12553.7	55.2838	12553.7	60.9292	12553.7	53.8244	12553.7	58.703	12553.7	46.1699	12553.7	47.9968
12996.1	91.3752	12996.1	91.0143	12996.1	90.8154	12996.1	88.8078	12996.1	89.1611	12996.1	85.296	12996.1	85.8293	12996.1	81.513	12996.1	81.445	12996.1	78.7057	12996.1	76.8581	12996.1	78.1281	12996.1	75.7222	12996.1	76.3171	12996.1	73.7449	12996.1	73.5437	12996.1	70.1425	12996.1	71.0648	12996.1	66.3845	12996.1	68.5433	12996.1	62.9952	12996.1	65.8696	12996.1	59.2571	12996.1	63.3799	12996.1	58.7077	12996.1	61.3043	12996.1	57.5132	12996.1	60.7993	12996.1	55.9259	12996.1	59.0189	12996.1	56.0459	12996.1	61.904	12996.1	52.3012	12996.1	59.1628	12996.1	46.7107	12996.1	49.6321
13454.6	90.7707	13454.6	90.6778	13454.6	90.2656	13454.6	88.624	13454.6	88.4596	13454.6	84.9961	13454.6	85.0606	13454.6	81.9535	13454.6	80.873	13454.6	80.2197	13454.6	75.7617	13454.6	79	13454.6	77.1551	13454.6	76.2322	13454.6	76.112	13454.6	73.6652	13454.6	72.3887	13454.6	71.2509	13454.6	68.7403	13454.6	68.4311	13454.6	65.0344	13454.6	66.1199	13454.6	61.4685	13454.6	63.0485	13454.6	57.9077	13454.6	63.4691	13454.6	57.8311	13454.6	61.3812	13454.6	55.5019	13454.6	60.2471	13454.6	49.6805	13454.6	60.529	13454.6	57.6055	13454.6	60.4003	13454.6	45.4716	13454.6	48.5983
13929.2	90.8259	13929.2	90.4786	13929.2	90.1192	13929.2	88.7991	13929.2	87.9012	13929.2	84.9391	13929.2	83.9866	13929.2	82.0169	13929.2	79.3377	13929.2	80.731	13929.2	75.5116	13929.2	79.0497	13929.2	76.7825	13929.2	76.4713	13929.2	76.2381	13929.2	74.1435	13929.2	72.7123	13929.2	70.8315	13929.2	69.0364	13929.2	67.9684	13929.2	65.0491	13929.2	65.735	13929.2	61.1413	13929.2	61.1003	13929.2	59.4601	13929.2	63.4518	13929.2	58.2009	13929.2	62.2752	13929.2	55.5676	13929.2	60.4491	13929.2	54.4632	13929.2	61.4179	13929.2	55.0973	13929.2	60.5716	13929.2	43.7553	13929.2	27.944
14419.9	90.925	14419.9	90.3829	14419.9	90.3064	14419.9	88.4989	14419.9	87.5031	14419.9	84.6333	14419.9	83.3352	14419.9	81.3387	14419.9	78.8797	14419.9	79.6304	14419.9	75.4203	14419.9	77.9436	14419.9	77.5661	14419.9	75.2499	14419.9	77.7351	14419.9	72.1762	14419.9	74.6802	14419.9	69.118	14419.9	70.9672	14419.9	66.7154	14419.9	66.2701	14419.9	63.7624	14419.9	62.5421	14419.9	62.146	14419.9	55.7724	14419.9	58.6372	14419.9	60.1064	14419.9	58.1332	14419.9	57.7538	14419.9	58.3602	14419.9	54.632	14419.9	58.9145	14419.9	54.249	14419.9	58.5006	14419.9	46.9836	14419.9	38.3158
14928.2	90.8753	14928.2	90.2833	14928.2	89.9846	14928.2	88.2933	14928.2	87.1555	14928.2	84.4413	14928.2	83.1152	14928.2	81.5206	14928.2	79.693	14928.2	79.6222	14928.2	78.1725	14928.2	78.5603	14928.2	79.8219	14928.2	75.6733	14928.2	79.8361	14928.2	73.0775	14928.2	76.6686	14928.2	69.5788	14928.2	72.3367	14928.2	67.3502	14928.2	68.5799	14928.2	64.5799	14928.2	64.5868	14928.2	62.9996	14928.2	60.6454	14928.2	59.4675	14928.2	60.3806	14928.2	58.6431	14928.2	58.082	14928.2	59.0805	14928.2	56.3279	14928.2	61.6502	14928.2	54.6304	14928.2	60.7652	14928.2	50.7409	14928.2	48.0664
15455.6	90.5108	15455.6	89.6302	15455.6	89.5554	15455.6	87.7767	15455.6	86.6543	15455.6	84.1736	15455.6	82.9514	15455.6	81.6312	15455.6	81.4906	15455.6	81.4482	15455.6	80.1316	15455.6	80.4108	15455.6	79.7935	15455.6	78.0858	15455.6	79.1634	15455.6	75.1754	15455.6	76.1462	15455.6	72.0153	15455.6	71.8116	15455.6	68.7855	15455.6	67.6401	15455.6	64.5623	15455.6	62.9975	15455.6	60.6944	15455.6	62.3519	15455.6	62.7119	15455.6	57.571	15455.6	61.4177	15455.6	55.9341	15455.6	59.2683	15455.6	57.9885	15455.6	61.9049	15455.6	53.3157	15455.6	62.187	15455.6	54.3908	15455.6	50.9933
16000.5	89.9209	16000.5	89.0232	16000.5	88.6565	16000.5	87.4478	16000.5	85.9396	16000.5	84.4111	16000.5	83.0618	16000.5	82.5506	16000.5	81.5644	16000.5	82.0857	16000.5	78.2808	16000.5	80.4235	16000.5	77.4126	16000.5	77.1593	16000.5	77.3174	16000.5	73.7806	16000.5	74.9041	16000.5	70.1787	16000.5	70.37	16000.5	67.5696	16000.5	66.7709	16000.5	64.4303	16000.5	61.628	16000.5	61.8738	16000.5	60.2596	16000.5	60.7155	16000.5	57.7986	16000.5	60.6981	16000.5	51.2691	16000.5	58.2521	16000.5	55.2286	16000.5	62.3337	16000.5	51.7478	16000.5	60.2111	16000.5	50.2504	16000.5	52.979
16564.5	88.3827	16564.5	87.4511	16564.5	87.1173	16564.5	86.4841	16564.5	84.8464	16564.5	84.4349	16564.5	82.3962	16564.5	82.4481	16564.5	81.6577	16564.5	81.4231	16564.5	79.4994	16564.5	80.132	16564.5	77.7908	16564.5	76.7971	16564.5	77.6023	16564.5	73.0625	16564.5	74.4029	16564.5	69.3281	16564.5	69.6496	16564.5	66.0259	16564.5	65.7293	16564.5	63.9503	16564.5	61.2685	16564.5	61.3627	16564.5	59.1777	16564.5	58.9009	16564.5	55.7715	16564.5	57.6558	16564.5	49.0765	16564.5	55.4577	16564.5	52.161	16564.5	60.5407	16564.5	48.0638	16564.5	59.2622	16564.5	49.2524	16564.5	50.5354
17148.9	87.8059	17148.9	86.985	17148.9	86.5023	17148.9	86.4781	17148.9	84.2044	17148.9	85.0017	17148.9	83.1632	17148.9	82.9907	17148.9	81.8153	17148.9	81.8859	17148.9	80.0194	17148.9	79.8539	17148.9	78.1553	17148.9	76.1158	17148.9	77.1464	17148.9	72.2519	17148.9	73.173	17148.9	68.3405	17148.9	68.0037	17148.9	64.6905	17148.9	63.3695	17148.9	62.3077	17148.9	60.3353	17148.9	59.1356	17148.9	57.2186	17148.9	56.5314	17148.9	54.2254	17148.9	56.8285	17148.9	45.6398	17148.9	54.8963	17148.9	51.4834	17148.9	57.7332	17148.9	46.6705	17148.9	60.1977	17148.9	51.9812	17148.9	54.9498
17752.4	87.8898	17752.4	87.8558	17752.4	86.6404	17752.4	87.5167	17752.4	84.8449	17752.4	85.6763	17752.4	84.3431	17752.4	83.5024	17752.4	82.4936	17752.4	80.9516	17752.4	80.7017	17752.4	76.706	17752.4	78.0442	17752.4	72.3343	17752.4	76.3533	17752.4	68.6463	17752.4	71.9345	17752.4	65.131	17752.4	67.2897	17752.4	62.3975	17752.4	62.8795	17752.4	60.1302	17752.4	59.4846	17752.4	58.1057	17752.4	56.074	17752.4	55.1605	17752.4	53.6103	17752.4	54.8073	17752.4	42.6347	17752.4	53.8366	17752.4	45.764	17752.4	53.9731	17752.4	39.5015	17752.4	55.2422	17752.4	48.0355	17752.4	51.2553
18379.4	87.3245	18379.4	87.9788	18379.4	86.4231	18379.4	87.2385	18379.4	84.257	18379.4	84.8942	18379.4	83.3893	18379.4	81.8534	18379.4	82.0984	18379.4	77.2352	18379.4	79.7049	18379.4	71.7083	18379.4	75.8702	18379.4	68.5963	18379.4	73.6771	18379.4	66.2623	18379.4	69.0299	18379.4	63.7261	18379.4	62.843	18379.4	59.8039	18379.4	59.5897	18379.4	56.9778	18379.4	53.9283	18379.4	53.3225	18379.4	53.4762	18379.4	55.7673	18379.4	50.6982	18379.4	52.2353	18379.4	19.4259	18379.4	51.2911	18379.4	40.4324	18379.4	45.6827	18379.4	43.0265	18379.4	52.2332	18379.4	48.113	18379.4	47.6021
19026.9	87.5836	19026.9	87.7899	19026.9	86.1969	19026.9	86.4749	19026.9	84.0235	19026.9	83.4833	19026.9	82.4898	19026.9	77.8397	19026.9	79.3584	19026.9	71.7468	19026.9	74.8714	19026.9	70.903	19026.9	69.8344	19026.9	70.2033	19026.9	70.1212	19026.9	67.0235	19026.9	65.9469	19026.9	63.2051	19026.9	60.5125	19026.9	61.1287	19026.9	55.479	19026.9	58.031	19026.9	53.375	19026.9	53.6302	19026.9	43.8823	19026.9	54.0937	19026.9	46.3279	19026.9	48.2438	19026.9	31.1372	19026.9	47.4705	19026.9	38.3333	19026.9	52.1309	19026.9	39.8572	19026.9	56.0868	19026.9	38.3485	19026.9	39.6219
19697.8	87.4732	19697.8	87.3482	19697.8	86.3239	19697.8	85.5011	19697.8	83.9685	19697.8	81.5658	19697.8	81.4672	19697.8	75.025	19697.8	77.5333	19697.8	71.1138	19697.8	73.2005	19697.8	71.8806	19697.8	69.8781	19697.8	69.8884	19697.8	68.0067	19697.8	67.2668	19697.8	63.3059	19697.8	63.2694	19697.8	57.8505	19697.8	60.3437	19697.8	54.5345	19697.8	57.9659	19697.8	51.8093	19697.8	54.5196	19697.8	40.6386	19697.8	50.9305	19697.8	43.6917	19697.8	49.4932	19697.8	33.8474	19697.8	48.3619	19697.8	40.9406	19697.8	50.7561	19697.8	44.9386	19697.8	54.5124	19697.8	38.0316	19697.8	39.7088
19999.5	86.9934	19999.5	86.9063	19999.5	85.4799	19999.5	84.7816	19999.5	84.0448	19999.5	80.0703	19999.5	81.0798	19999.5	72.6924	19999.5	78.0865	19999.5	69.5434	19999.5	73.0334	19999.5	71.7168	19999.5	68.3642	19999.5	70.0993	19999.5	66.8467	19999.5	67.5815	19999.5	63.0131	19999.5	64.3574	19999.5	58.6535	19999.5	59.9486	19999.5	54.6297	19999.5	57.7926	19999.5	51.4735	19999.5	52.3803	19999.5	48.3589	19999.5	54.4301	19999.5	50.2411	19999.5	44.6641	19999.5	48.4101	19999.5	49.099	19999.5	51.9677	19999.5	50.1566	19999.5	29.9744	19999.5	51.9396	19999.5	46.8644	19999.5	48.3382
