"SPL Horizontal"
"On-Axis"		"10°"		"-10°"		"20°"		"-20°"		"30°"		"-30°"		"40°"		"-40°"		"50°"		"-50°"		"60°"		"-60°"		"70°"		"-70°"		"80°"		"-80°"		"90°"		"-90°"		"100°"		"-100°"		"110°"		"-110°"		"120°"		"-120°"		"130°"		"-130°"		"140°"		"-140°"		"150°"		"-150°"		"160°"		"-160°"		"170°"		"-170°"		"180°"
"Frequency / Hz"	"Sound Pressure Level / dB (re 20 µPa/V)  [2.83V at 1m]"	"Frequency / Hz"	"Sound Pressure Level / dB (re 20 µPa/V)  [2.83V at 1m]"	"Frequency / Hz"	"Sound Pressure Level / dB (re 20 µPa/V)  [2.83V at 1m]"	"Frequency / Hz"	"Sound Pressure Level / dB (re 20 µPa/V)  [2.83V at 1m]"	"Frequency / Hz"	"Sound Pressure Level / dB (re 20 µPa/V)  [2.83V at 1m]"	"Frequency / Hz"	"Sound Pressure Level / dB (re 20 µPa/V)  [2.83V at 1m]"	"Frequency / Hz"	"Sound Pressure Level / dB (re 20 µPa/V)  [2.83V at 1m]"	"Frequency / Hz"	"Sound Pressure Level / dB (re 20 µPa/V)  [2.83V at 1m]"	"Frequency / Hz"	"Sound Pressure Level / dB (re 20 µPa/V)  [2.83V at 1m]"	"Frequency / Hz"	"Sound Pressure Level / dB (re 20 µPa/V)  [2.83V at 1m]"	"Frequency / Hz"	"Sound Pressure Level / dB (re 20 µPa/V)  [2.83V at 1m]"	"Frequency / Hz"	"Sound Pressure Level / dB (re 20 µPa/V)  [2.83V at 1m]"	"Frequency / Hz"	"Sound Pressure Level / dB (re 20 µPa/V)  [2.83V at 1m]"	"Frequency / Hz"	"Sound Pressure Level / dB (re 20 µPa/V)  [2.83V at 1m]"	"Frequency / Hz"	"Sound Pressure Level / dB (re 20 µPa/V)  [2.83V at 1m]"	"Frequency / Hz"	"Sound Pressure Level / dB (re 20 µPa/V)  [2.83V at 1m]"	"Frequency / Hz"	"Sound Pressure Level / dB (re 20 µPa/V)  [2.83V at 1m]"	"Frequency / Hz"	"Sound Pressure Level / dB (re 20 µPa/V)  [2.83V at 1m]"	"Frequency / Hz"	"Sound Pressure Level / dB (re 20 µPa/V)  [2.83V at 1m]"	"Frequency / Hz"	"Sound Pressure Level / dB (re 20 µPa/V)  [2.83V at 1m]"	"Frequency / Hz"	"Sound Pressure Level / dB (re 20 µPa/V)  [2.83V at 1m]"	"Frequency / Hz"	"Sound Pressure Level / dB (re 20 µPa/V)  [2.83V at 1m]"	"Frequency / Hz"	"Sound Pressure Level / dB (re 20 µPa/V)  [2.83V at 1m]"	"Frequency / Hz"	"Sound Pressure Level / dB (re 20 µPa/V)  [2.83V at 1m]"	"Frequency / Hz"	"Sound Pressure Level / dB (re 20 µPa/V)  [2.83V at 1m]"	"Frequency / Hz"	"Sound Pressure Level / dB (re 20 µPa/V)  [2.83V at 1m]"	"Frequency / Hz"	"Sound Pressure Level / dB (re 20 µPa/V)  [2.83V at 1m]"	"Frequency / Hz"	"Sound Pressure Level / dB (re 20 µPa/V)  [2.83V at 1m]"	"Frequency / Hz"	"Sound Pressure Level / dB (re 20 µPa/V)  [2.83V at 1m]"	"Frequency / Hz"	"Sound Pressure Level / dB (re 20 µPa/V)  [2.83V at 1m]"	"Frequency / Hz"	"Sound Pressure Level / dB (re 20 µPa/V)  [2.83V at 1m]"	"Frequency / Hz"	"Sound Pressure Level / dB (re 20 µPa/V)  [2.83V at 1m]"	"Frequency / Hz"	"Sound Pressure Level / dB (re 20 µPa/V)  [2.83V at 1m]"	"Frequency / Hz"	"Sound Pressure Level / dB (re 20 µPa/V)  [2.83V at 1m]"	"Frequency / Hz"	"Sound Pressure Level / dB (re 20 µPa/V)  [2.83V at 1m]"	"Frequency / Hz"	"Sound Pressure Level / dB (re 20 µPa/V)  [2.83V at 1m]"
20.5078	56.6092	20.5078	56.4567	20.5078	56.6362	20.5078	56.1751	20.5078	56.5394	20.5078	55.7595	20.5078	56.319	20.5078	55.2071	20.5078	55.9757	20.5078	54.5256	20.5078	55.5152	20.5078	53.7492	20.5078	54.9581	20.5078	52.9712	20.5078	54.3557	20.5078	52.3791	20.5078	53.8128	20.5078	52.228	20.5078	53.4936	20.5078	52.6682	20.5078	53.5649	20.5078	53.5867	20.5078	54.0736	20.5078	54.7162	20.5078	54.8977	20.5078	55.8319	20.5078	55.8414	20.5078	56.8075	20.5078	56.7433	20.5078	57.5855	20.5078	57.5057	20.5078	58.1427	20.5078	58.0777	20.5078	58.4708	20.5078	58.4354	20.5078	58.5679
21.9727	55.5895	21.9727	55.4188	21.9727	55.5672	21.9727	55.047	21.9727	55.3519	21.9727	54.4596	21.9727	54.9374	21.9727	53.6395	21.9727	54.315	21.9727	52.5864	21.9727	53.4862	21.9727	51.3744	21.9727	52.4983	21.9727	50.2983	21.9727	51.5288	21.9727	49.9966	21.9727	50.9933	21.9727	50.9281	21.9727	51.3793	21.9727	52.6675	21.9727	52.6648	21.9727	54.5499	21.9727	54.3406	21.9727	56.2485	21.9727	55.9888	21.9727	57.6709	21.9727	57.4291	21.9727	58.8075	21.9727	58.6086	21.9727	59.6693	21.9727	59.5205	21.9727	60.269	21.9727	60.1709	21.9727	60.6158	21.9727	60.5673	21.9727	60.7148
23.4375	57.8787	23.4375	57.7745	23.4375	57.8443	23.4375	57.5328	23.4375	57.6714	23.4375	57.1586	23.4375	57.3624	23.4375	56.6684	23.4375	56.9273	23.4375	56.1052	23.4375	56.3957	23.4375	55.5638	23.4375	55.8385	23.4375	55.2119	23.4375	55.3954	23.4375	55.2555	23.4375	55.2705	23.4375	55.8052	23.4375	55.6332	23.4375	56.77	23.4375	56.4708	23.4375	57.9367	23.4375	57.5943	23.4375	59.1134	23.4375	58.7877	23.4375	60.1827	23.4375	59.9033	23.4375	61.0851	23.4375	60.8629	23.4375	61.7939	23.4375	61.6301	23.4375	62.2973	23.4375	62.1902	23.4375	62.5903	23.4375	62.5375	23.4375	62.6708
24.9023	58.0878	24.9023	57.9608	24.9023	58.033	24.9023	57.6485	24.9023	57.7969	24.9023	57.1468	24.9023	57.3789	24.9023	56.4596	24.9023	56.7858	24.9023	55.6235	24.9023	56.0511	24.9023	54.7629	24.9023	55.2797	24.9023	54.1705	24.9023	54.7117	24.9023	54.2612	24.9023	54.7041	24.9023	55.1951	24.9023	55.4574	24.9023	56.6639	24.9023	56.7719	24.9023	58.2573	24.9023	58.278	24.9023	59.7367	24.9023	59.7195	24.9023	61.008	24.9023	60.9792	24.9023	62.0442	24.9023	62.016	24.9023	62.8426	24.9023	62.8199	24.9023	63.4072	24.9023	63.3918	24.9023	63.7424	24.9023	63.7347	24.9023	63.8513
26.3672	59.54	26.3672	59.465	26.3672	59.5014	26.3672	59.279	26.3672	59.354	26.3672	58.9944	26.3672	59.1123	26.3672	58.6411	26.3672	58.8075	26.3672	58.2791	26.3672	58.4986	26.3672	58.0114	26.3672	58.2826	26.3672	57.9771	26.3672	58.2862	26.3672	58.2961	26.3672	58.6164	26.3672	58.9873	26.3672	59.2896	26.3672	59.9489	26.3672	60.2151	26.3672	61.029	26.3672	61.254	26.3672	62.0981	26.3672	62.284	26.3672	63.0721	26.3672	63.2227	26.3672	63.9037	26.3672	64.022	26.3672	64.5682	26.3672	64.656	26.3672	65.0528	26.3672	65.1111	26.3672	65.3513	26.3672	65.3804	26.3672	65.4608
27.832	60.1978	27.832	60.13	27.832	60.1534	27.832	59.9525	27.832	60.0013	27.832	59.6774	27.832	59.7558	27.832	59.3336	27.832	59.4473	27.832	58.9792	27.832	59.1335	27.832	58.7137	27.832	58.9101	27.832	58.6727	27.832	58.9025	27.832	58.9761	27.832	59.2187	27.832	59.6477	27.832	59.8789	27.832	60.5928	27.832	60.7958	27.832	61.6622	27.832	61.8316	27.832	62.726	27.832	62.8632	27.832	63.698	27.832	63.8067	27.832	64.5291	27.832	64.6127	27.832	65.1931	27.832	65.2541	27.832	65.6765	27.832	65.7165	27.832	65.9726	27.832	65.9924	27.832	66.0781
29.2969	61.8512	29.2969	61.792	29.2969	61.8325	29.2969	61.658	29.2969	61.7418	29.2969	61.4634	29.2969	61.5953	29.2969	61.2375	29.2969	61.4234	29.2969	61.0318	29.2969	61.2755	29.2969	60.9224	29.2969	61.221	29.2969	60.9988	29.2969	61.3377	29.2969	61.3304	29.2969	61.6833	29.2969	61.9265	29.2969	62.2635	29.2969	62.7262	29.2969	63.0252	29.2969	63.6309	29.2969	63.8821	29.2969	64.5448	29.2969	64.7478	29.2969	65.3954	29.2969	65.5543	29.2969	66.1347	29.2969	66.2548	29.2969	66.7334	29.2969	66.8194	29.2969	67.1742	29.2969	67.2296	29.2969	67.4472	29.2969	67.4743	29.2969	67.5476
30.7617	63.9746	30.7617	63.9288	30.7617	63.9493	30.7617	63.8138	30.7617	63.8574	30.7617	63.6388	30.7617	63.7105	30.7617	63.4237	30.7617	63.5301	30.7617	63.2037	30.7617	63.3514	30.7617	63.0331	30.7617	63.2253	30.7617	62.9825	30.7617	63.2146	30.7617	63.1211	30.7617	63.3782	30.7617	63.4866	30.7617	63.7457	30.7617	64.0615	30.7617	64.2998	30.7617	64.7792	30.7617	64.9821	30.7617	65.554	30.7617	65.7164	30.7617	66.3079	30.7617	66.4317	30.7617	66.9825	30.7617	67.0727	30.7617	67.5389	30.7617	67.601	30.7617	67.9524	30.7617	67.9911	30.7617	68.2088	30.7617	68.2274	30.7617	68.301
32.2266	63.9273	32.2266	63.8862	32.2266	63.9146	32.2266	63.7953	32.2266	63.8534	32.2266	63.6692	32.2266	63.7594	32.2266	63.5358	32.2266	63.6605	32.2266	63.4384	32.2266	63.5987	32.2266	63.4344	32.2266	63.6275	32.2266	63.5842	32.2266	63.802	32.2266	63.9294	32.2266	64.1586	32.2266	64.4717	32.2266	64.6972	32.2266	65.1687	32.2266	65.3779	32.2266	65.9518	32.2266	66.1368	32.2266	66.749	32.2266	66.9064	32.2266	67.5004	32.2266	67.6296	32.2266	68.162	32.2266	68.2637	32.2266	68.7037	32.2266	68.779	32.2266	69.1059	32.2266	69.1555	32.2266	69.3565	32.2266	69.3811	32.2266	69.4489
33.6914	66.521	33.6914	66.494	33.6914	66.5121	33.6914	66.4335	33.6914	66.4713	33.6914	66.3484	33.6914	66.4091	33.6914	66.2556	33.6914	66.3431	33.6914	66.1811	33.6914	66.299	33.6914	66.1597	33.6914	66.3092	33.6914	66.2303	33.6914	66.4088	33.6914	66.4267	33.6914	66.6261	33.6914	66.7644	33.6914	66.9724	33.6914	67.2322	33.6914	67.4354	33.6914	67.7943	33.6914	67.981	33.6914	68.4005	33.6914	68.5631	33.6914	68.9991	33.6914	69.134	33.6914	69.5453	33.6914	69.6515	33.6914	70.0046	33.6914	70.0827	33.6914	70.352	33.6914	70.4032	33.6914	70.5715	33.6914	70.5968	33.6914	70.654
35.1562	67.7933	35.1562	67.7686	35.1562	67.7843	35.1562	67.7124	35.1562	67.7452	35.1562	67.6325	35.1562	67.6853	35.1562	67.5438	35.1562	67.6203	35.1562	67.4695	35.1562	67.573	35.1562	67.4401	35.1562	67.5725	35.1562	67.491	35.1562	67.6506	35.1562	67.6537	35.1562	67.8344	35.1562	67.9454	35.1562	68.137	35.1562	68.3599	35.1562	68.5504	35.1562	68.8682	35.1562	69.0465	35.1562	69.4256	35.1562	69.5836	35.1562	69.9835	35.1562	70.1166	35.1562	70.4982	35.1562	70.6043	35.1562	70.9345	35.1562	71.0133	35.1562	71.2666	35.1562	71.3186	35.1562	71.4774	35.1562	71.5032	35.1562	71.5572
36.6211	69.0569	36.6211	69.036	36.6211	69.05	36.6211	68.9893	36.6211	69.0186	36.6211	68.9237	36.6211	68.9707	36.6211	68.8523	36.6211	68.9203	36.6211	68.7947	36.6211	68.8868	36.6211	68.777	36.6211	68.8949	36.6211	68.8289	36.6211	68.9714	36.6211	68.977	36.6211	69.1394	36.6211	69.237	36.6211	69.4109	36.6211	69.6057	36.6211	69.7808	36.6211	70.0602	36.6211	70.2264	36.6211	70.5632	36.6211	70.7124	36.6211	71.0716	36.6211	71.1989	36.6211	71.545	36.6211	71.6475	36.6211	71.9493	36.6211	72.0261	36.6211	72.259	36.6211	72.31	36.6211	72.4566	36.6211	72.4819	36.6211	72.5319
38.0859	70.1569	38.0859	70.1418	38.0859	70.15	38.0859	70.1061	38.0859	70.1238	38.0859	70.0559	38.0859	70.0856	38.0859	70.0024	38.0859	70.0476	38.0859	69.9623	38.0859	70.0266	38.0859	69.9576	38.0859	70.0437	38.0859	70.0127	38.0859	70.1217	38.0859	70.1503	38.0859	70.2802	38.0859	70.3843	38.0859	70.5296	38.0859	70.7136	38.0859	70.8663	38.0859	71.1207	38.0859	71.2717	38.0859	71.5744	38.0859	71.7154	38.0859	72.0376	38.0859	72.1618	38.0859	72.4728	38.0859	72.5757	38.0859	72.8477	38.0859	72.9264	38.0859	73.137	38.0859	73.1901	38.0859	73.323	38.0859	73.3496	38.0859	73.395
39.5508	71.2851	39.5508	71.2718	39.5508	71.2809	39.5508	71.2422	39.5508	71.2616	39.5508	71.2015	39.5508	71.2335	39.5508	71.1593	39.5508	71.2067	39.5508	71.1296	39.5508	71.1956	39.5508	71.1308	39.5508	71.2178	39.5508	71.1835	39.5508	71.2922	39.5508	71.3069	39.5508	71.4355	39.5508	71.5137	39.5508	71.6571	39.5508	71.8043	39.5508	71.9553	39.5508	72.1656	39.5508	72.3156	39.5508	72.5718	39.5508	72.7126	39.5508	72.9905	39.5508	73.1153	39.5508	73.3877	39.5508	73.4916	39.5508	73.7327	39.5508	73.8125	39.5508	74.0008	39.5508	74.0548	39.5508	74.1743	39.5508	74.2014	39.5508	74.2423
41.0156	72.3183	41.0156	72.3083	41.0156	72.3147	41.0156	72.2856	41.0156	72.2996	41.0156	72.2546	41.0156	72.2785	41.0156	72.2237	41.0156	72.2605	41.0156	72.2048	41.0156	72.2578	41.0156	72.2136	41.0156	72.2854	41.0156	72.2677	41.0156	72.3594	41.0156	72.3836	41.0156	72.494	41.0156	72.5723	41.0156	72.6976	41.0156	72.8354	41.0156	72.9692	41.0156	73.1623	41.0156	73.2968	41.0156	73.5313	41.0156	73.6589	41.0156	73.9137	41.0156	74.0278	41.0156	74.2787	41.0156	74.3743	41.0156	74.5976	41.0156	74.6713	41.0156	74.8465	41.0156	74.8964	41.0156	75.0079	41.0156	75.0331	41.0156	75.0713
42.4805	73.3064	42.4805	73.2993	42.4805	73.3056	42.4805	73.285	42.4805	73.2987	42.4805	73.2676	42.4805	73.2905	42.4805	73.254	42.4805	73.2888	42.4805	73.2546	42.4805	73.3039	42.4805	73.2824	42.4805	73.3482	42.4805	73.3517	42.4805	73.4348	42.4805	73.4758	42.4805	73.5748	42.4805	73.6633	42.4805	73.7747	42.4805	73.9148	42.4805	74.0331	42.4805	74.2208	42.4805	74.3395	42.4805	74.5629	42.4805	74.6754	42.4805	74.9159	42.4805	75.0165	42.4805	75.2526	42.4805	75.337	42.4805	75.5469	42.4805	75.6121	42.4805	75.7769	42.4805	75.8211	42.4805	75.926	42.4805	75.9483	42.4805	75.9843
43.9453	74.1837	43.9453	74.1792	43.9453	74.1827	43.9453	74.1699	43.9453	74.178	43.9453	74.1593	43.9453	74.1736	43.9453	74.1532	43.9453	74.1762	43.9453	74.1603	43.9453	74.1944	43.9453	74.1916	43.9453	74.2389	43.9453	74.2593	43.9453	74.3207	43.9453	74.3746	43.9453	74.4496	43.9453	74.545	43.9453	74.6313	43.9453	74.7717	43.9453	74.8651	43.9453	75.0472	43.9453	75.1425	43.9453	75.3559	43.9453	75.4476	43.9453	75.676	43.9453	75.7591	43.9453	75.9829	43.9453	76.0533	43.9453	76.2524	43.9453	76.3072	43.9453	76.4636	43.9453	76.501	43.9453	76.6008	43.9453	76.6197	43.9453	76.654
45.4102	75.0724	45.4102	75.0683	45.4102	75.0754	45.4102	75.0638	45.4102	75.0786	45.4102	75.0614	45.4102	75.0856	45.4102	75.0662	45.4102	75.1015	45.4102	75.0853	45.4102	75.1334	45.4102	75.1273	45.4102	75.1896	45.4102	75.2021	45.4102	75.2786	45.4102	75.3185	45.4102	75.4076	45.4102	75.4823	45.4102	75.5809	45.4102	75.694	45.4102	75.7974	45.4102	75.9473	45.4102	76.0502	45.4102	76.2289	45.4102	76.3259	45.4102	76.5201	45.4102	76.6065	45.4102	76.7994	45.4102	76.8716	45.4102	77.045	45.4102	77.1007	45.4102	77.2381	45.4102	77.2759	45.4102	77.364	45.4102	77.383	45.4102	77.4133
46.875	75.9024	46.875	75.8996	46.875	75.9062	46.875	75.8982	46.875	75.9119	46.875	75.9003	46.875	75.9223	46.875	75.9099	46.875	75.9416	46.875	75.9327	46.875	75.9752	46.875	75.9757	46.875	76.0295	46.875	76.0468	46.875	76.1114	46.875	76.153	46.875	76.2268	46.875	76.2994	46.875	76.3792	46.875	76.4866	46.875	76.5686	46.875	76.7099	46.875	76.7897	46.875	76.9582	46.875	77.032	46.875	77.2158	46.875	77.2804	46.875	77.4639	46.875	77.5171	46.875	77.6829	46.875	77.7234	46.875	77.8553	46.875	77.8824	46.875	77.9673	46.875	77.9809	46.875	78.0102
48.3398	76.4461	48.3398	76.445	48.3398	76.449	48.3398	76.4462	48.3398	76.4544	48.3398	76.4518	48.3398	76.4647	48.3398	76.4654	48.3398	76.4834	48.3398	76.4922	48.3398	76.5156	48.3398	76.5383	48.3398	76.5672	48.3398	76.6107	48.3398	76.6447	48.3398	76.7156	48.3398	76.7539	48.3398	76.8574	48.3398	76.8986	48.3398	77.0365	48.3398	77.0791	48.3398	77.2486	48.3398	77.2908	48.3398	77.4839	48.3398	77.5238	48.3398	77.7277	48.3398	77.7637	48.3398	77.9624	48.3398	77.993	48.3398	78.1696	48.3398	78.1937	48.3398	78.3326	48.3398	78.3491	48.3398	78.4379	48.3398	78.4463	48.3398	78.4768
51.2695	77.8928	51.2695	77.8941	51.2695	77.8977	51.2695	77.9018	51.2695	77.9094	51.2695	77.9171	51.2695	77.9294	51.2695	77.9422	51.2695	77.9599	51.2695	77.9798	51.2695	78.0039	51.2695	78.0339	51.2695	78.065	51.2695	78.1083	51.2695	78.1468	51.2695	78.207	51.2695	78.2526	51.2695	78.3326	51.2695	78.3843	51.2695	78.4852	51.2695	78.5414	51.2695	78.6619	51.2695	78.7203	51.2695	78.8558	51.2695	78.9135	51.2695	79.0564	51.2695	79.1103	51.2695	79.2501	51.2695	79.2973	51.2695	79.4224	51.2695	79.4603	51.2695	79.5593	51.2695	79.5858	51.2695	79.6494	51.2695	79.663	51.2695	79.6849
52.7344	78.5079	52.7344	78.5111	52.7344	78.5129	52.7344	78.5226	52.7344	78.5266	52.7344	78.5431	52.7344	78.5503	52.7344	78.5742	52.7344	78.5857	52.7344	78.618	52.7344	78.6351	52.7344	78.6774	52.7344	78.7014	52.7344	78.7552	52.7344	78.7871	52.7344	78.8543	52.7344	78.8946	52.7344	78.9765	52.7344	79.0249	52.7344	79.1219	52.7344	79.177	52.7344	79.2876	52.7344	79.3472	52.7344	79.4679	52.7344	79.5287	52.7344	79.6533	52.7344	79.7118	52.7344	79.8322	52.7344	79.8845	52.7344	79.9915	52.7344	80.0341	52.7344	80.1185	52.7344	80.1485	52.7344	80.2027	52.7344	80.2182	52.7344	80.2368
54.1992	79.0581	54.1992	79.0649	54.1992	79.0606	54.1992	79.0808	54.1992	79.0729	54.1992	79.1063	54.1992	79.096	54.1992	79.1422	54.1992	79.1314	54.1992	79.1899	54.1992	79.1805	54.1992	79.2511	54.1992	79.2455	54.1992	79.328	54.1992	79.328	54.1992	79.4224	54.1992	79.4296	54.1992	79.5357	54.1992	79.5507	54.1992	79.6677	54.1992	79.6901	54.1992	79.8162	54.1992	79.8447	54.1992	79.9763	54.1992	80.0085	54.1992	80.1403	54.1992	80.1734	54.1992	80.2981	54.1992	80.329	54.1992	80.4383	54.1992	80.4643	54.1992	80.5498	54.1992	80.5684	54.1992	80.623	54.1992	80.6327	54.1992	80.6515
55.6641	79.5743	55.6641	79.5822	55.6641	79.5758	55.6641	79.5995	55.6641	79.5874	55.6641	79.6261	55.6641	79.6097	55.6641	79.6627	55.6641	79.6439	55.6641	79.7099	55.6641	79.691	55.6641	79.7691	55.6641	79.7525	55.6641	79.8417	55.6641	79.8295	55.6641	79.929	55.6641	79.9231	55.6641	80.0322	55.6641	80.0333	55.6641	80.151	55.6641	80.1593	55.6641	80.2837	55.6641	80.2982	55.6641	80.4262	55.6641	80.4452	55.6641	80.572	55.6641	80.5931	55.6641	80.7124	55.6641	80.7331	55.6641	80.8372	55.6641	80.8551	55.6641	80.9364	55.6641	80.9495	55.6641	81.0014	55.6641	81.0083	55.6641	81.0261
58.5938	80.4766	58.5938	80.4861	58.5938	80.4775	58.5938	80.5054	58.5938	80.4891	58.5938	80.5345	58.5938	80.5119	58.5938	80.573	58.5938	80.5463	58.5938	80.621	58.5938	80.5928	58.5938	80.6787	58.5938	80.6517	58.5938	80.7465	58.5938	80.7232	58.5938	80.8249	58.5938	80.8074	58.5938	80.9142	58.5938	80.9038	58.5938	81.0141	58.5938	81.0112	58.5938	81.1233	58.5938	81.1274	58.5938	81.239	58.5938	81.2486	58.5938	81.3565	58.5938	81.3696	58.5938	81.4693	58.5938	81.4836	58.5938	81.5697	58.5938	81.5828	58.5938	81.6497	58.5938	81.6596	58.5938	81.7021	58.5938	81.7074	58.5938	81.722
60.0586	80.9056	60.0586	80.9149	60.0586	80.9069	60.0586	80.9343	60.0586	80.9192	60.0586	80.9634	60.0586	80.9427	60.0586	81.0019	60.0586	80.9777	60.0586	81.0493	60.0586	81.0244	60.0586	81.1056	60.0586	81.0825	60.0586	81.1707	60.0586	81.1521	60.0586	81.2448	60.0586	81.2325	60.0586	81.3278	60.0586	81.323	60.0586	81.4194	60.0586	81.4223	60.0586	81.5184	60.0586	81.5282	60.0586	81.6224	60.0586	81.6376	60.0586	81.7276	60.0586	81.7458	60.0586	81.8285	60.0586	81.847	60.0586	81.9183	60.0586	81.9347	60.0586	81.99	60.0586	82.0023	60.0586	82.0374	60.0586	82.0439	60.0586	82.056
62.9883	81.6898	62.9883	81.6951	62.9883	81.6953	62.9883	81.7107	62.9883	81.7117	62.9883	81.7361	62.9883	81.7389	62.9883	81.7706	62.9883	81.7768	62.9883	81.8136	62.9883	81.8246	62.9883	81.8644	62.9883	81.8815	62.9883	81.9225	62.9883	81.9466	62.9883	81.9873	62.9883	82.0186	62.9883	82.0584	62.9883	82.0963	62.9883	82.1353	62.9883	82.1781	62.9883	82.2169	62.9883	82.2624	62.9883	82.3014	62.9883	82.3469	62.9883	82.3862	62.9883	82.4289	62.9883	82.4671	62.9883	82.5044	62.9883	82.5393	62.9883	82.5691	62.9883	82.5975	62.9883	82.6181	62.9883	82.6368	62.9883	82.6474	62.9883	82.6539
64.4531	82.0537	64.4531	82.0621	64.4531	82.0559	64.4531	82.0804	64.4531	82.0689	64.4531	82.1082	64.4531	82.0926	64.4531	82.1445	64.4531	82.1266	64.4531	82.1885	64.4531	82.1703	64.4531	82.2394	64.4531	82.2227	64.4531	82.2963	64.4531	82.2826	64.4531	82.3584	64.4531	82.3486	64.4531	82.4251	64.4531	82.4194	64.4531	82.4955	64.4531	82.4936	64.4531	82.5687	64.4531	82.5697	64.4531	82.643	64.4531	82.6459	64.4531	82.7162	64.4531	82.72	64.4531	82.785	64.4531	82.7887	64.4531	82.8452	64.4531	82.8484	64.4531	82.8926	64.4531	82.8949	64.4531	82.9232	64.4531	82.9243	64.4531	82.9341
67.3828	82.6701	67.3828	82.6847	67.3828	82.6665	67.3828	82.7096	67.3828	82.6742	67.3828	82.7437	67.3828	82.6933	67.3828	82.7859	67.3828	82.7232	67.3828	82.8347	67.3828	82.7633	67.3828	82.8885	67.3828	82.8122	67.3828	82.9459	67.3828	82.8685	67.3828	83.0053	67.3828	82.9304	67.3828	83.0654	67.3828	82.9961	67.3828	83.1253	67.3828	83.064	67.3828	83.1842	67.3828	83.1323	67.3828	83.2411	67.3828	83.1993	67.3828	83.295	67.3828	83.263	67.3828	83.3442	67.3828	83.3212	67.3828	83.3865	67.3828	83.371	67.3828	83.4191	67.3828	83.4098	67.3828	83.4393	67.3828	83.435	67.3828	83.445
68.8477	82.9474	68.8477	82.9588	68.8477	82.9471	68.8477	82.9808	68.8477	82.9583	68.8477	83.0124	68.8477	82.9807	68.8477	83.0522	68.8477	83.0139	68.8477	83.0988	68.8477	83.0566	68.8477	83.1505	68.8477	83.1074	68.8477	83.2054	68.8477	83.1645	68.8477	83.2619	68.8477	83.2258	68.8477	83.3186	68.8477	83.2892	68.8477	83.3742	68.8477	83.3527	68.8477	83.4281	68.8477	83.4147	68.8477	83.4794	68.8477	83.4736	68.8477	83.5277	68.8477	83.5278	68.8477	83.5716	68.8477	83.5757	68.8477	83.6097	68.8477	83.6154	68.8477	83.6398	68.8477	83.645	68.8477	83.6598	68.8477	83.6628	68.8477	83.6678
71.7773	83.5256	71.7773	83.5352	71.7773	83.5274	71.7773	83.5554	71.7773	83.5406	71.7773	83.5854	71.7773	83.565	71.7773	83.6237	71.7773	83.5999	71.7773	83.6686	71.7773	83.6438	71.7773	83.7182	71.7773	83.695	71.7773	83.7703	71.7773	83.7511	71.7773	83.823	71.7773	83.8096	71.7773	83.8743	71.7773	83.8681	71.7773	83.9228	71.7773	83.9242	71.7773	83.9677	71.7773	83.9761	71.7773	84.0085	71.7773	84.0226	71.7773	84.0452	71.7773	84.0627	71.7773	84.0775	71.7773	84.096	71.7773	84.105	71.7773	84.1218	71.7773	84.127	71.7773	84.1396	71.7773	84.1423	71.7773	84.1491	71.7773	84.1498
74.707	84.0385	74.707	84.0463	74.707	84.0414	74.707	84.0643	74.707	84.0553	74.707	84.0916	74.707	84.0798	74.707	84.1268	74.707	84.1139	74.707	84.1683	74.707	84.1563	74.707	84.2139	74.707	84.2049	74.707	84.2613	74.707	84.2573	74.707	84.3083	74.707	84.3105	74.707	84.3526	74.707	84.3619	74.707	84.3928	74.707	84.409	74.707	84.4278	74.707	84.4498	74.707	84.4574	74.707	84.4835	74.707	84.482	74.707	84.5097	74.707	84.5022	74.707	84.5288	74.707	84.5187	74.707	84.5415	74.707	84.5319	74.707	84.5485	74.707	84.5418	74.707	84.5506	74.707	84.5482
77.6367	84.4407	77.6367	84.4469	77.6367	84.4445	77.6367	84.4626	77.6367	84.4583	77.6367	84.4869	77.6367	84.4818	77.6367	84.5185	77.6367	84.5142	77.6367	84.5559	77.6367	84.5539	77.6367	84.5968	77.6367	84.599	77.6367	84.639	77.6367	84.6466	77.6367	84.6799	77.6367	84.6939	77.6367	84.7173	77.6367	84.7378	77.6367	84.7492	77.6367	84.7758	77.6367	84.7748	77.6367	84.8059	77.6367	84.7938	77.6367	84.8275	77.6367	84.8071	77.6367	84.8408	77.6367	84.8159	77.6367	84.847	77.6367	84.822	77.6367	84.8479	77.6367	84.8268	77.6367	84.8453	77.6367	84.8313	77.6367	84.841	77.6367	84.8361
79.1016	84.6271	79.1016	84.633	79.1016	84.6309	79.1016	84.6479	79.1016	84.6444	79.1016	84.6711	79.1016	84.6672	79.1016	84.7014	79.1016	84.6986	79.1016	84.7372	79.1016	84.7372	79.1016	84.7763	79.1016	84.7807	79.1016	84.8164	79.1016	84.8265	79.1016	84.8548	79.1016	84.8717	79.1016	84.8893	79.1016	84.9129	79.1016	84.918	79.1016	84.9476	79.1016	84.9396	79.1016	84.9738	79.1016	84.9543	79.1016	84.9909	79.1016	84.9628	79.1016	84.9992	79.1016	84.9669	79.1016	85.0003	79.1016	84.9687	79.1016	84.9964	79.1016	84.97	79.1016	84.9899	79.1016	84.9724	79.1016	84.9827	79.1016	84.9767
82.0312	85.036	82.0312	85.0401	82.0312	85.0407	82.0312	85.0523	82.0312	85.0541	82.0312	85.0721	82.0312	85.076	82.0312	85.0984	82.0312	85.1059	82.0312	85.1296	82.0312	85.1422	82.0312	85.164	82.0312	85.1831	82.0312	85.1992	82.0312	85.2257	82.0312	85.2327	82.0312	85.2669	82.0312	85.262	82.0312	85.3035	82.0312	85.2851	82.0312	85.3324	82.0312	85.3008	82.0312	85.3518	82.0312	85.3091	82.0312	85.3608	82.0312	85.3109	82.0312	85.3604	82.0312	85.3085	82.0312	85.3524	82.0312	85.3042	82.0312	85.3399	82.0312	85.3009	82.0312	85.326	82.0312	85.3007	82.0312	85.3136	82.0312	85.3049
84.9609	85.3977	84.9609	85.4047	84.9609	85.3987	84.9609	85.4193	84.9609	85.4082	84.9609	85.4406	84.9609	85.4263	84.9609	85.4678	84.9609	85.4524	84.9609	85.4993	84.9609	85.4855	84.9609	85.5336	84.9609	85.5237	84.9609	85.5683	84.9609	85.5642	84.9609	85.601	84.9609	85.6037	84.9609	85.6291	84.9609	85.6386	84.9609	85.6504	84.9609	85.6657	84.9609	85.6635	84.9609	85.683	84.9609	85.6681	84.9609	85.6896	84.9609	85.6652	84.9609	85.6865	84.9609	85.6568	84.9609	85.676	84.9609	85.646	84.9609	85.6615	84.9609	85.6361	84.9609	85.6469	84.9609	85.6299	84.9609	85.6354	84.9609	85.6295
87.8906	85.6576	87.8906	85.6738	87.8906	85.65	87.8906	85.6979	87.8906	85.6518	87.8906	85.729	87.8906	85.6632	87.8906	85.7657	87.8906	85.6842	87.8906	85.8066	87.8906	85.714	87.8906	85.8497	87.8906	85.7508	87.8906	85.8921	87.8906	85.7918	87.8906	85.9311	87.8906	85.8336	87.8906	85.9634	87.8906	85.8723	87.8906	85.9864	87.8906	85.9042	87.8906	85.9983	87.8906	85.9265	87.8906	85.9988	87.8906	85.938	87.8906	85.989	87.8906	85.9393	87.8906	85.9716	87.8906	85.9327	87.8906	85.9505	87.8906	85.922	87.8906	85.9301	87.8906	85.9114	87.8906	85.9142	87.8906	85.905	87.8906	85.9055
90.8203	85.9643	90.8203	85.9758	90.8203	85.9594	90.8203	85.9934	90.8203	85.9614	90.8203	86.0166	90.8203	85.9707	90.8203	86.0447	90.8203	85.9875	90.8203	86.0766	90.8203	86.0112	90.8203	86.1104	90.8203	86.0405	90.8203	86.1435	90.8203	86.073	90.8203	86.1728	90.8203	86.1055	90.8203	86.1951	90.8203	86.1341	90.8203	86.2073	90.8203	86.1552	90.8203	86.2077	90.8203	86.1659	90.8203	86.196	90.8203	86.1648	90.8203	86.174	90.8203	86.1527	90.8203	86.1453	90.8203	86.1321	90.8203	86.1149	90.8203	86.1077	90.8203	86.0881	90.8203	86.0848	90.8203	86.0698	90.8203	86.0686	90.8203	86.063
95.2148	86.3559	95.2148	86.3619	95.2148	86.3532	95.2148	86.3712	95.2148	86.3545	95.2148	86.3839	95.2148	86.3601	95.2148	86.3998	95.2148	86.3707	95.2148	86.4185	95.2148	86.3862	95.2148	86.4388	95.2148	86.4057	95.2148	86.4585	95.2148	86.4274	95.2148	86.4749	95.2148	86.4482	95.2148	86.4847	95.2148	86.4645	95.2148	86.4849	95.2148	86.4725	95.2148	86.4737	95.2148	86.4694	95.2148	86.4507	95.2148	86.4538	95.2148	86.418	95.2148	86.4268	95.2148	86.3795	95.2148	86.3915	95.2148	86.3409	95.2148	86.3533	95.2148	86.3084	95.2148	86.3185	95.2148	86.2877	95.2148	86.2933	95.2148	86.2823
98.1445	86.536	98.1445	86.5396	98.1445	86.5338	98.1445	86.5446	98.1445	86.5334	98.1445	86.5513	98.1445	86.5357	98.1445	86.5601	98.1445	86.5415	98.1445	86.571	98.1445	86.5512	98.1445	86.5832	98.1445	86.5644	98.1445	86.595	98.1445	86.5795	98.1445	86.6037	98.1445	86.5937	98.1445	86.6063	98.1445	86.6034	98.1445	86.5997	98.1445	86.6047	98.1445	86.5819	98.1445	86.5948	98.1445	86.5528	98.1445	86.5721	98.1445	86.5143	98.1445	86.5376	98.1445	86.4706	98.1445	86.495	98.1445	86.4276	98.1445	86.4497	98.1445	86.3921	98.1445	86.4088	98.1445	86.37	98.1445	86.379	98.1445	86.3653
101.074	86.7266	101.074	86.729	101.074	86.7231	101.074	86.7304	101.074	86.7191	101.074	86.7313	101.074	86.7157	101.074	86.7328	101.074	86.7142	101.074	86.7351	101.074	86.7156	101.074	86.7383	101.074	86.72	101.074	86.741	101.074	86.7262	101.074	86.741	101.074	86.7317	101.074	86.7353	101.074	86.7331	101.074	86.7211	101.074	86.7265	101.074	86.6962	101.074	86.7088	101.074	86.6604	101.074	86.6788	101.074	86.6154	101.074	86.6373	101.074	86.5655	101.074	86.5882	101.074	86.517	101.074	86.5373	101.074	86.4769	101.074	86.4922	101.074	86.4516	101.074	86.4598	101.074	86.4455
105.469	86.9736	105.469	86.9812	105.469	86.9628	105.469	86.9856	105.469	86.9496	105.469	86.9877	105.469	86.9356	105.469	86.9886	105.469	86.9226	105.469	86.9892	105.469	86.9122	105.469	86.9895	105.469	86.9051	105.469	86.9887	105.469	86.9004	105.469	86.9846	105.469	86.8961	105.469	86.9742	105.469	86.8889	105.469	86.9544	105.469	86.8749	105.469	86.9228	105.469	86.8512	105.469	86.8789	105.469	86.8164	105.469	86.8244	105.469	86.7718	105.469	86.7637	105.469	86.7213	105.469	86.7033	105.469	86.6713	105.469	86.6509	105.469	86.6294	105.469	86.6138	105.469	86.603	105.469	86.5971
108.398	87.0591	108.398	87.0657	108.398	87.0487	108.398	87.0687	108.398	87.0351	108.398	87.0694	108.398	87.0198	108.398	87.0693	108.398	87.005	108.398	87.0695	108.398	86.9924	108.398	87.0704	108.398	86.9832	108.398	87.071	108.398	86.9769	108.398	87.069	108.398	86.9716	108.398	87.061	108.398	86.9642	108.398	87.0435	108.398	86.9508	108.398	87.014	108.398	86.9284	108.398	86.9714	108.398	86.8952	108.398	86.9174	108.398	86.8524	108.398	86.8565	108.398	86.8037	108.398	86.7954	108.398	86.7554	108.398	86.7419	108.398	86.7151	108.398	86.7034	108.398	86.69	108.398	86.6855
112.793	87.1146	112.793	87.1082	112.793	87.1147	112.793	87.0967	112.793	87.1089	112.793	87.0822	112.793	87.0988	112.793	87.0672	112.793	87.0866	112.793	87.0542	112.793	87.0749	112.793	87.0442	112.793	87.0653	112.793	87.0368	112.793	87.0579	112.793	87.0299	112.793	87.0515	112.793	87.0198	112.793	87.0428	112.793	87.0027	112.793	87.0282	112.793	86.9754	112.793	87.004	112.793	86.9367	112.793	86.9683	112.793	86.8882	112.793	86.9213	112.793	86.8342	112.793	86.8665	112.793	86.7815	112.793	86.8099	112.793	86.738	112.793	86.7593	112.793	86.7111	112.793	86.7224	112.793	86.7054
117.188	87.2353	117.188	87.2174	117.188	87.2427	117.188	87.1898	117.188	87.2404	117.188	87.1552	117.188	87.2309	117.188	87.117	117.188	87.2175	117.188	87.079	117.188	87.2035	117.188	87.0442	117.188	87.1912	117.188	87.0137	117.188	87.1811	117.188	86.987	117.188	87.1714	117.188	86.9615	117.188	87.1587	117.188	86.934	117.188	87.1386	117.188	86.9013	117.188	87.1068	117.188	86.862	117.188	87.0611	117.188	86.8172	117.188	87.0016	117.188	86.7707	117.188	86.9319	117.188	86.7287	117.188	86.8584	117.188	86.6986	117.188	86.7897	117.188	86.6873	117.188	86.7343	117.188	86.699
120.117	87.3634	120.117	87.3666	120.117	87.3478	120.117	87.3577	120.117	87.3218	120.117	87.3391	120.117	87.289	120.117	87.3141	120.117	87.2542	120.117	87.287	120.117	87.2222	120.117	87.2608	120.117	87.1965	120.117	87.2377	120.117	87.1786	120.117	87.2175	120.117	87.1673	120.117	87.1983	120.117	87.159	120.117	87.177	120.117	87.1491	120.117	87.1504	120.117	87.1329	120.117	87.1166	120.117	87.1072	120.117	87.0754	120.117	87.0716	120.117	87.0294	120.117	87.0289	120.117	86.9836	120.117	86.9845	120.117	86.9443	120.117	86.9454	120.117	86.9177	120.117	86.9184	120.117	86.9086
124.512	87.4272	124.512	87.425	124.512	87.4135	124.512	87.4082	124.512	87.3853	124.512	87.3801	124.512	87.3461	124.512	87.3456	124.512	87.3015	124.512	87.3096	124.512	87.2572	124.512	87.2763	124.512	87.2183	124.512	87.2479	124.512	87.1878	124.512	87.2241	124.512	87.1661	124.512	87.2027	124.512	87.1507	124.512	87.18	124.512	87.1371	124.512	87.1523	124.512	87.1204	124.512	87.1174	124.512	87.0968	124.512	87.0753	124.512	87.0646	124.512	87.0286	124.512	87.0256	124.512	86.9827	124.512	86.9842	124.512	86.9438	124.512	86.9469	124.512	86.9182	124.512	86.9204	124.512	86.91
128.906	87.5006	128.906	87.486	128.906	87.4921	128.906	87.45	128.906	87.462	128.906	87.397	128.906	87.4142	128.906	87.333	128.906	87.3549	128.906	87.2645	128.906	87.291	128.906	87.1973	128.906	87.2292	128.906	87.1355	128.906	87.1739	128.906	87.0802	128.906	87.1267	128.906	87.0302	128.906	87.0864	128.906	86.9826	128.906	87.0492	128.906	86.9343	128.906	87.0104	128.906	86.8831	128.906	86.9658	128.906	86.8291	128.906	86.9138	128.906	86.7753	128.906	86.8556	128.906	86.727	128.906	86.7957	128.906	86.6905	128.906	86.7409	128.906	86.6716	128.906	86.6983	128.906	86.6742
133.301	87.5588	133.301	87.5416	133.301	87.5502	133.301	87.5003	133.301	87.5172	133.301	87.439	133.301	87.4637	133.301	87.3639	133.301	87.396	133.301	87.2816	133.301	87.3209	133.301	87.1981	133.301	87.2449	133.301	87.1177	133.301	87.1726	133.301	87.042	133.301	87.1059	133.301	86.9704	133.301	87.0439	133.301	86.9005	133.301	86.9834	133.301	86.8296	133.301	86.9203	133.301	86.7562	133.301	86.8515	133.301	86.6813	133.301	86.7761	133.301	86.6085	133.301	86.6965	133.301	86.544	133.301	86.6183	133.301	86.4953	133.301	86.5492	133.301	86.469	133.301	86.4974	133.301	86.4695
139.16	87.5408	139.16	87.5241	139.16	87.5326	139.16	87.4839	139.16	87.5013	139.16	87.4247	139.16	87.4518	139.16	87.3529	139.16	87.391	139.16	87.2756	139.16	87.3264	139.16	87.1989	139.16	87.2644	139.16	87.127	139.16	87.209	139.16	87.061	139.16	87.1606	139.16	86.9994	139.16	87.1165	139.16	86.9388	139.16	87.0718	139.16	86.8759	139.16	87.0208	139.16	86.8088	139.16	86.9594	139.16	86.7384	139.16	86.8865	139.16	86.669	139.16	86.8049	139.16	86.6076	139.16	86.7212	139.16	86.5626	139.16	86.6445	139.16	86.5413	139.16	86.5842	139.16	86.5484
143.555	87.6104	143.555	87.5933	143.555	87.5986	143.555	87.5491	143.555	87.5601	143.555	87.4831	143.555	87.5006	143.555	87.4029	143.555	87.4285	143.555	87.3173	143.555	87.3529	143.555	87.2341	143.555	87.2821	143.555	87.1587	143.555	87.2216	143.555	87.0934	143.555	87.173	143.555	87.0371	143.555	87.134	143.555	86.9865	143.555	87.0993	143.555	86.9376	143.555	87.0628	143.555	86.8875	143.555	87.0193	143.555	86.8356	143.555	86.9664	143.555	86.7846	143.555	86.9054	143.555	86.7398	143.555	86.841	143.555	86.7074	143.555	86.7806	143.555	86.6935	143.555	86.7319	143.555	86.7017
147.949	87.6569	147.949	87.6462	147.949	87.6346	147.949	87.6046	147.949	87.5821	147.949	87.5379	147.949	87.5059	147.949	87.4552	147.949	87.4161	147.949	87.3663	147.949	87.3241	147.949	87.2806	147.949	87.2405	147.949	87.2051	147.949	87.1728	147.949	87.1433	147.949	87.1245	147.949	87.095	147.949	87.094	147.949	87.0573	147.949	87.0761	147.949	87.026	147.949	87.0635	147.949	86.9971	147.949	87.0496	147.949	86.9687	147.949	87.0301	147.949	86.941	147.949	87.0038	147.949	86.9166	147.949	86.9727	147.949	86.8992	147.949	86.9413	147.949	86.8921	147.949	86.9147	147.949	86.8974
153.809	87.651	153.809	87.6225	153.809	87.6402	153.809	87.5573	153.809	87.5923	153.809	87.4623	153.809	87.5138	153.809	87.3475	153.809	87.415	153.809	87.2245	153.809	87.3077	153.809	87.1043	153.809	87.2034	153.809	86.9952	153.809	87.111	153.809	86.9017	153.809	87.0353	153.809	86.8243	153.809	86.9765	153.809	86.7605	153.809	86.9304	153.809	86.7062	153.809	86.8908	153.809	86.6581	153.809	86.8512	153.809	86.6149	153.809	86.8067	153.809	86.5779	153.809	86.7561	153.809	86.5505	153.809	86.701	153.809	86.5367	153.809	86.6462	153.809	86.5397	153.809	86.5975	153.809	86.5606
159.668	87.4226	159.668	87.4061	159.668	87.3992	159.668	87.3523	159.668	87.3385	159.668	87.2684	159.668	87.2481	159.668	87.1649	159.668	87.1392	159.668	87.0535	159.668	87.0248	159.668	86.9452	159.668	86.9174	159.668	86.8482	159.668	86.8264	159.668	86.7666	159.668	86.7564	159.668	86.7001	159.668	86.7067	159.668	86.6457	159.668	86.6723	159.668	86.5988	159.668	86.6459	159.668	86.5556	159.668	86.6204	159.668	86.5144	159.668	86.5908	159.668	86.4763	159.668	86.5555	159.668	86.4446	159.668	86.5165	159.668	86.4232	159.668	86.4778	159.668	86.4156	159.668	86.4451	159.668	86.4232
165.527	87.1815	165.527	87.1496	165.527	87.1654	165.527	87.0719	165.527	87.1049	165.527	86.9566	165.527	87.0095	165.527	86.8165	165.527	86.8925	165.527	86.6663	165.527	86.769	165.527	86.5206	165.527	86.6531	165.527	86.3907	165.527	86.5553	165.527	86.2825	165.527	86.4807	165.527	86.1968	165.527	86.4284	165.527	86.1299	165.527	86.3928	165.527	86.0768	165.527	86.3655	165.527	86.0331	165.527	86.338	165.527	85.9976	165.527	86.3037	165.527	85.9719	165.527	86.2593	165.527	85.9596	165.527	86.2049	165.527	85.9645	165.527	86.1444	165.527	85.9882	165.527	86.0836	165.527	86.0294
171.387	87.1152	171.387	87.1253	171.387	87.0497	171.387	87.0817	171.387	86.9336	171.387	86.9923	171.387	86.7785	171.387	86.8694	171.387	86.6007	171.387	86.7282	171.387	86.4197	171.387	86.5839	171.387	86.2541	171.387	86.4493	171.387	86.1182	171.387	86.3332	171.387	86.0194	171.387	86.2392	171.387	85.9573	171.387	86.1662	171.387	85.9253	171.387	86.1102	171.387	85.9136	171.387	86.0661	171.387	85.9124	171.387	86.0298	171.387	85.9146	171.387	85.9987	171.387	85.9164	171.387	85.9724	171.387	85.917	171.387	85.9512	171.387	85.9175	171.387	85.9355	171.387	85.9197	171.387	85.9253
177.246	87.1269	177.246	87.1101	177.246	87.0832	177.246	87.0364	177.246	86.9824	177.246	86.9156	177.246	86.8346	177.246	86.7624	177.246	86.6555	177.246	86.5937	177.246	86.4644	177.246	86.4263	177.246	86.2804	177.246	86.2735	177.246	86.1199	177.246	86.1439	177.246	85.9929	177.246	86.0399	177.246	85.9025	177.246	85.9595	177.246	85.8449	177.246	85.8977	177.246	85.812	177.246	85.8491	177.246	85.7945	177.246	85.8101	177.246	85.7843	177.246	85.7793	177.246	85.7759	177.246	85.7568	177.246	85.7669	177.246	85.7431	177.246	85.7571	177.246	85.7381	177.246	85.7475	177.246	85.7404
183.105	87.2635	183.105	87.2463	183.105	87.2147	183.105	87.1667	183.105	87.1037	183.105	87.0353	183.105	86.9418	183.105	86.868	183.105	86.7464	183.105	86.683	183.105	86.5388	183.105	86.4984	183.105	86.3403	183.105	86.329	183.105	86.1684	183.105	86.1842	183.105	86.0338	183.105	86.0671	183.105	85.9386	183.105	85.9759	183.105	85.8779	183.105	85.9056	183.105	85.8422	183.105	85.851	183.105	85.8211	183.105	85.8081	183.105	85.8064	183.105	85.7751	183.105	85.7927	183.105	85.7518	183.105	85.7783	183.105	85.7385	183.105	85.7633	183.105	85.7348	183.105	85.7496	183.105	85.7393
188.965	87.3663	188.965	87.3488	188.965	87.3136	188.965	87.2657	188.965	87.1946	188.965	87.1288	188.965	87.0211	188.965	86.9553	188.965	86.8119	188.965	86.7652	188.965	86.5896	188.965	86.5781	188.965	86.3778	188.965	86.4098	188.965	86.1959	188.965	86.2703	188.965	86.0562	188.965	86.1629	188.965	85.9618	188.965	86.0852	188.965	85.908	188.965	86.0316	188.965	85.8851	188.965	85.9956	188.965	85.8822	188.965	85.9715	188.965	85.8898	188.965	85.9556	188.965	85.9014	188.965	85.9458	188.965	85.913	188.965	85.9402	188.965	85.9227	188.965	85.937	188.965	85.9297	188.965	85.9341
196.289	87.132	196.289	87.0919	196.289	87.0932	196.289	86.9792	196.289	86.9781	196.289	86.8084	196.289	86.7988	196.289	86.6003	196.289	86.5753	196.289	86.3784	196.289	86.3331	196.289	86.1657	196.289	86.0994	196.289	85.9806	196.289	85.8982	196.289	85.8344	196.289	85.7455	196.289	85.731	196.289	85.6474	196.289	85.6675	196.289	85.6	196.289	85.6375	196.289	85.5928	196.289	85.6333	196.289	85.6128	196.289	85.6478	196.289	85.648	196.289	85.6747	196.289	85.6885	196.289	85.7076	196.289	85.727	196.289	85.7401	196.289	85.7576	196.289	85.7655	196.289	85.7757	196.289	85.7784
203.613	87.0895	203.613	87.0315	203.613	87.0532	203.613	86.8857	203.613	86.9266	203.613	86.6681	203.613	86.7237	203.613	86.4025	203.613	86.4673	203.613	86.1168	203.613	86.1861	203.613	85.8391	203.613	85.9107	203.613	85.5924	203.613	85.6685	203.613	85.391	203.613	85.4783	203.613	85.2391	203.613	85.3475	203.613	85.1334	203.613	85.2726	203.613	85.0661	203.613	85.242	203.613	85.0299	203.613	85.2405	203.613	85.0193	203.613	85.2531	203.613	85.0311	203.613	85.2676	203.613	85.0622	203.613	85.2747	203.613	85.1074	203.613	85.2682	203.613	85.1589	203.613	85.2456	203.613	85.2076
210.938	87.2809	210.938	87.2396	210.938	87.2184	210.938	87.0997	210.938	87.0568	210.938	86.8763	210.938	86.8111	210.938	86.5923	210.938	86.5048	210.938	86.2764	210.938	86.1678	210.938	85.9589	210.938	85.8328	210.938	85.6673	210.938	85.5299	210.938	85.421	210.938	85.2817	210.938	85.2297	210.938	85.0995	210.938	85.0929	210.938	84.9834	210.938	85.0034	210.938	84.9245	210.938	84.9513	210.938	84.9091	210.938	84.9277	210.938	84.9224	210.938	84.9257	210.938	84.9505	210.938	84.9398	210.938	84.9813	210.938	84.9637	210.938	85.005	210.938	84.9895	210.938	85.0149	210.938	85.0088
218.262	87.2447	218.262	87.2018	218.262	87.1838	218.262	87.0619	218.262	87.0232	218.262	86.8417	218.262	86.7776	218.262	86.5655	218.262	86.4716	218.262	86.263	218.262	86.1367	218.262	85.9647	218.262	85.8074	218.262	85.6975	218.262	85.5149	218.262	85.481	218.262	85.2819	218.262	85.3245	218.262	85.1187	218.262	85.2279	218.262	85.0236	218.262	85.1833	218.262	84.9866	218.262	85.1787	218.262	84.9941	218.262	85.2009	218.262	85.0326	218.262	85.2369	218.262	85.0902	218.262	85.2748	218.262	85.1561	218.262	85.3042	218.262	85.2203	218.262	85.3164	218.262	85.2729	218.262	85.3062
225.586	86.9327	225.586	86.8683	225.586	86.8852	225.586	86.6999	225.586	86.7298	225.586	86.4469	225.586	86.4826	225.586	86.138	225.586	86.1707	225.586	85.8073	225.586	85.8289	225.586	85.4897	225.586	85.4953	225.586	85.2146	225.586	85.2046	225.586	85.0016	225.586	84.9821	225.586	84.8586	225.586	84.8393	225.586	84.7831	225.586	84.7742	225.586	84.7662	225.586	84.775	225.586	84.7964	225.586	84.825	225.586	84.8617	225.586	84.9064	225.586	84.9495	225.586	85.0024	225.586	85.0457	225.586	85.0969	225.586	85.1347	225.586	85.1748	225.586	85.2008	225.586	85.2227	225.586	85.2321
232.91	87.143	232.91	87.0768	232.91	87.084	232.91	86.8925	232.91	86.9054	232.91	86.6087	232.91	86.6256	232.91	86.2537	232.91	86.2749	232.91	85.8624	232.91	85.8922	232.91	85.4725	232.91	85.5206	232.91	85.1183	232.91	85.1988	232.91	84.8265	232.91	84.9542	232.91	84.6123	232.91	84.7975	232.91	84.4794	232.91	84.7238	232.91	84.4221	232.91	84.7169	232.91	84.4295	232.91	84.756	232.91	84.4879	232.91	84.821	232.91	84.5827	232.91	84.8937	232.91	84.6972	232.91	84.9584	232.91	84.8133	232.91	85.0014	232.91	84.9131	232.91	85.0115	232.91	84.9819
241.699	86.8729	241.699	86.7731	241.699	86.8267	241.699	86.5353	241.699	86.6398	241.699	86.1806	241.699	86.3304	241.699	85.7423	241.699	85.9293	241.699	85.2628	241.699	85.4773	241.699	84.7885	241.699	85.0213	241.699	84.362	241.699	84.6074	241.699	84.0146	241.699	84.2725	241.699	83.7617	241.699	84.0374	241.699	83.6043	241.699	83.9048	241.699	83.5347	241.699	83.8632	241.699	83.5425	241.699	83.8929	241.699	83.6166	241.699	83.9715	241.699	83.7427	241.699	84.0761	241.699	83.9003	241.699	84.1824	241.699	84.0616	241.699	84.2657	241.699	84.1966	241.699	84.3036	241.699	84.2813
250.488	86.9611	250.488	86.8636	250.488	86.9058	250.488	86.6238	250.488	86.7014	250.488	86.266	250.488	86.3664	250.488	85.8268	250.488	85.9334	250.488	85.3507	250.488	85.447	250.488	84.8846	250.488	84.9595	250.488	84.4692	250.488	84.523	250.488	84.1325	250.488	84.1792	250.488	83.8854	250.488	83.9503	250.488	83.7242	250.488	83.8363	250.488	83.6368	250.488	83.8181	250.488	83.6099	250.488	83.8662	250.488	83.6326	250.488	83.949	250.488	83.6964	250.488	84.0382	250.488	83.7914	250.488	84.1108	250.488	83.9029	250.488	84.1502	250.488	84.0118	250.488	84.1466	250.488	84.0981
259.277	87.2909	259.277	87.2355	259.277	87.1862	259.277	87.0249	259.277	86.9298	259.277	86.677	259.277	86.5435	259.277	86.2222	259.277	86.0614	259.277	85.701	259.277	85.5281	259.277	85.161	259.277	84.9931	259.277	84.6505	259.277	84.5046	259.277	84.2107	259.277	84.1014	259.277	83.8681	259.277	83.8063	259.277	83.6309	259.277	83.6245	259.277	83.4919	259.277	83.5461	259.277	83.4345	259.277	83.5513	259.277	83.441	259.277	83.6142	259.277	83.4957	259.277	83.7063	259.277	83.5835	259.277	83.7986	259.277	83.6876	259.277	83.8651	259.277	83.7867	259.277	83.8874	259.277	83.8591
268.066	87.0238	268.066	86.9385	268.066	86.9484	268.066	86.7054	268.066	86.7139	268.066	86.3509	268.066	86.3382	268.066	85.9125	268.066	85.8551	268.066	85.4344	268.066	85.3133	268.066	84.9634	268.066	84.7714	268.066	84.5424	268.066	84.2889	268.066	84.2056	268.066	83.9141	268.066	83.975	268.066	83.674	268.066	83.8591	268.066	83.5716	268.066	83.8543	268.066	83.5913	268.066	83.946	268.066	83.7081	268.066	84.1099	268.066	83.8944	268.066	84.3138	268.066	84.1216	268.066	84.5198	268.066	84.3584	268.066	84.69	268.066	84.5717	268.066	84.7922	268.066	84.7293	268.066	84.8068
276.855	86.878	276.855	86.7443	276.855	86.8302	276.855	86.4385	276.855	86.6066	276.855	85.9857	276.855	86.2278	276.855	85.4261	276.855	85.7283	276.855	84.8127	276.855	85.1549	276.855	84.2046	276.855	84.564	276.855	83.6572	276.855	84.0147	276.855	83.2112	276.855	83.5605	276.855	82.8857	276.855	83.2386	276.855	82.6805	276.855	83.063	276.855	82.5848	276.855	83.0241	276.855	82.5873	276.855	83.0946	276.855	82.6795	276.855	83.2378	276.855	82.8503	276.855	83.413	276.855	83.0769	276.855	83.5792	276.855	83.3212	276.855	83.6982	276.855	83.5373	276.855	83.7389	276.855	83.6845
287.109	87.1261	287.109	87.0312	287.109	87.0166	287.109	86.7405	287.109	86.7117	287.109	86.2799	287.109	86.2384	287.109	85.6917	287.109	85.6406	287.109	85.0316	287.109	84.9769	287.109	84.3633	287.109	84.314	287.109	83.7483	287.109	83.7161	287.109	83.2347	287.109	83.233	287.109	82.8499	287.109	82.8913	287.109	82.5993	287.109	82.6936	287.109	82.4729	287.109	82.6243	287.109	82.4542	287.109	82.6583	287.109	82.525	287.109	82.7662	287.109	82.6642	287.109	82.9163	287.109	82.8442	287.109	83.074	287.109	83.0293	287.109	83.2041	287.109	83.1814	287.109	83.2757	287.109	83.2689
297.363	87.4147	297.363	87.3208	297.363	87.2895	297.363	87.0175	297.363	86.9526	297.363	86.5311	297.363	86.4299	297.363	85.9043	297.363	85.7663	297.363	85.1948	297.363	85.0254	297.363	84.4715	297.363	84.2836	297.363	83.8061	297.363	83.6189	297.363	83.2598	297.363	83.0938	297.363	82.8704	297.363	82.7415	297.363	82.6451	297.363	82.5623	297.363	82.5646	297.363	82.5316	297.363	82.5949	297.363	82.6124	297.363	82.6995	297.363	82.7648	297.363	82.8464	297.363	82.9493	297.363	83.009	297.363	83.1281	297.363	83.1628	297.363	83.2684	297.363	83.2837	297.363	83.3459	297.363	83.3499
307.617	87.0217	307.617	86.891	307.617	86.9357	307.617	86.5585	307.617	86.6346	307.617	86.0537	307.617	86.1365	307.617	85.4208	307.617	85.4786	307.617	84.7167	307.617	84.7178	307.617	84.0072	307.617	83.9306	307.617	83.3602	307.617	83.2056	307.617	82.8365	307.617	82.6289	307.617	82.4801	307.617	82.2636	307.617	82.3128	307.617	82.1333	307.617	82.3331	307.617	82.2213	307.617	82.5193	307.617	82.482	307.617	82.8328	307.617	82.856	307.617	83.2202	307.617	83.2789	307.617	83.6185	307.617	83.6864	307.617	83.9639	307.617	84.0202	307.617	84.2021	307.617	84.2334	307.617	84.2968
319.336	86.938	319.336	86.8246	319.336	86.8232	319.336	86.4903	319.336	86.4905	319.336	85.9602	319.336	85.968	319.336	85.2767	319.336	85.3006	319.336	84.4981	319.336	84.548	319.336	83.6947	319.336	83.7794	319.336	82.9403	319.336	83.0639	319.336	82.3004	319.336	82.4601	319.336	81.8206	319.336	82.0065	319.336	81.5217	319.336	81.7195	319.336	81.4036	319.336	81.5992	319.336	81.455	319.336	81.637	319.336	81.656	319.336	81.8169	319.336	81.9719	319.336	82.1071	319.336	82.345	319.336	82.451	319.336	82.6989	319.336	82.7722	319.336	82.9565	319.336	82.9941	319.336	83.0618
329.59	87.0161	329.59	86.8586	329.59	86.9124	329.59	86.4561	329.59	86.5519	329.59	85.8454	329.59	85.9602	329.59	85.0839	329.59	85.1854	329.59	84.2464	329.59	84.2993	329.59	83.4166	329.59	83.3936	329.59	82.6732	329.59	82.569	329.59	82.0734	329.59	81.9155	329.59	81.6436	329.59	81.4902	329.59	81.3822	329.59	81.3063	329.59	81.2725	329.59	81.3391	329.59	81.2976	329.59	81.5406	329.59	81.4452	329.59	81.852	329.59	81.7001	329.59	82.2084	329.59	82.03	329.59	82.5422	329.59	82.3789	329.59	82.791	329.59	82.6784	329.59	82.907	329.59	82.8671
341.309	86.7606	341.309	86.661	341.309	86.6036	341.309	86.3117	341.309	86.2006	341.309	85.7363	341.309	85.5809	341.309	84.9765	341.309	84.7954	341.309	84.0931	341.309	83.9163	341.309	83.1666	341.309	83.0331	341.309	82.2913	341.309	82.2389	341.309	81.5612	341.309	81.6095	341.309	81.0473	341.309	81.1845	341.309	80.7788	341.309	80.9625	341.309	80.7412	341.309	80.9154	341.309	80.8913	341.309	81.0101	341.309	81.175	341.309	81.219	341.309	81.5354	341.309	81.5145	341.309	81.9109	341.309	81.8543	341.309	82.2361	341.309	82.1772	341.309	82.451	341.309	82.4151	341.309	82.5143
353.027	87.0428	353.027	86.8639	353.027	86.9378	353.027	86.4146	353.027	86.5563	353.027	85.7294	353.027	85.9275	353.027	84.8633	353.027	85.1032	353.027	83.8904	353.027	84.1579	353.027	82.8985	353.027	83.1846	353.027	81.9795	353.027	82.2843	353.027	81.2123	353.027	81.548	353.027	80.646	353.027	81.0368	353.027	80.291	353.027	80.77	353.027	80.1286	353.027	80.7292	353.027	80.1336	353.027	80.8737	353.027	80.2922	353.027	81.1521	353.027	80.5965	353.027	81.5031	353.027	81.0162	353.027	81.8528	353.027	81.4799	353.027	82.1207	353.027	81.89	353.027	82.2363	353.027	82.1587
366.211	87.0065	366.211	86.8518	366.211	86.8585	366.211	86.4081	366.211	86.416	366.211	85.7109	366.211	85.7106	366.211	84.8167	366.211	84.8011	366.211	83.8016	366.211	83.7741	366.211	82.7575	366.211	82.7399	366.211	81.7835	366.211	81.8166	366.211	80.9731	366.211	81.1014	366.211	80.3995	366.211	80.6441	366.211	80.1012	366.211	80.4392	366.211	80.0749	366.211	80.4442	366.211	80.2798	366.211	80.6076	366.211	80.6501	366.211	80.8863	366.211	81.109	366.211	81.2434	366.211	81.5768	366.211	81.6323	366.211	81.9772	366.211	81.9895	366.211	82.2451	366.211	82.2436	366.211	82.3375
379.395	86.5228	379.395	86.3667	379.395	86.3506	379.395	85.8923	379.395	85.8642	379.395	85.1324	379.395	85.1042	379.395	84.145	379.395	84.1427	379.395	83.0155	379.395	83.0836	379.395	81.8557	379.395	82.0525	379.395	80.7921	379.395	81.1684	379.395	79.9399	379.395	80.5068	379.395	79.3683	379.395	80.0791	379.395	79.0809	379.395	79.8449	379.395	79.0269	379.395	79.7464	379.395	79.1352	379.395	79.7412	379.395	79.3458	379.395	79.8153	379.395	79.62	379.395	79.9693	379.395	79.9282	379.395	80.1858	379.395	80.2304	379.395	80.4101	379.395	80.4702	379.395	80.5655	379.395	80.5914
392.578	86.39	392.578	86.2434	392.578	86.1688	392.578	85.7473	392.578	85.584	392.578	84.9411	392.578	84.6678	392.578	83.8862	392.578	83.4918	392.578	82.6684	392.578	82.1821	392.578	81.3985	392.578	80.924	392.578	80.21	392.578	79.9278	392.578	79.2452	392.578	79.3381	392.578	78.6266	392.578	79.1577	392.578	78.4126	392.578	79.2723	392.578	78.5673	392.578	79.5389	392.578	78.9763	392.578	79.8498	392.578	79.5008	392.578	80.1497	392.578	80.0269	392.578	80.4247	392.578	80.4821	392.578	80.6768	392.578	80.8267	392.578	80.897	392.578	81.0395	392.578	81.0554	392.578	81.1126
405.762	87.1454	405.762	86.9388	405.762	86.9711	405.762	86.3759	405.762	86.4089	405.762	85.4987	405.762	85.4731	405.762	84.3681	405.762	84.2105	405.762	83.0642	405.762	82.7218	405.762	81.6854	405.762	81.1939	405.762	80.343	405.762	79.9089	405.762	79.1547	405.762	79.1481	405.762	78.2394	405.762	78.9952	405.762	77.7142	405.762	79.2832	405.762	77.6728	405.762	79.7635	405.762	78.1196	405.762	80.2547	405.762	78.9189	405.762	80.6732	405.762	79.8474	405.762	81.0112	405.762	80.6986	405.762	81.2985	405.762	81.3407	405.762	81.5559	405.762	81.7186	405.762	81.7592	405.762	81.8399
420.41	87.9303	420.41	87.6815	420.41	87.7927	420.41	87.0756	420.41	87.2521	420.41	86.1539	420.41	86.3051	420.41	84.9709	420.41	84.9664	420.41	83.5946	420.41	83.2814	420.41	82.106	420.41	81.3562	420.41	80.5994	420.41	79.4255	420.41	79.1798	420.41	77.9315	420.41	77.9635	420.41	77.3844	420.41	77.087	420.41	77.8458	420.41	76.708	420.41	78.8555	420.41	76.9301	420.41	79.9563	420.41	77.6762	420.41	80.9094	420.41	78.7026	420.41	81.6235	420.41	79.7607	420.41	82.0759	420.41	80.6936	420.41	82.2721	420.41	81.429	420.41	82.2242	420.41	81.9416
435.059	87.8094	435.059	87.3814	435.059	87.8031	435.059	86.5457	435.059	87.3552	435.059	85.3597	435.059	86.4718	435.059	83.9244	435.059	85.1699	435.059	82.3869	435.059	83.4835	435.059	80.9125	435.059	81.483	435.059	79.6253	435.059	79.3364	435.059	78.5635	435.059	77.4513	435.059	77.6988	435.059	76.5477	435.059	77.0046	435.059	77.025	435.059	76.5446	435.059	78.3405	435.059	76.5266	435.059	79.7807	435.059	77.1448	435.059	80.9887	435.059	78.2747	435.059	81.8493	435.059	79.5471	435.059	82.3524	435.059	80.6699	435.059	82.5344	435.059	81.5264	435.059	82.4435	435.059	82.1094
451.172	88.1877	451.172	87.794	451.172	88.1893	451.172	87.0088	451.172	87.8138	451.172	85.8576	451.172	87.0836	451.172	84.4071	451.172	86.0236	451.172	82.7842	451.172	84.6576	451.172	81.1854	451.172	83.0103	451.172	79.8384	451.172	81.1132	451.172	78.8989	451.172	79.0278	451.172	78.3619	451.172	76.9386	451.172	78.0809	451.172	75.4243	451.172	77.8691	451.172	75.4339	451.172	77.6188	451.172	76.9152	451.172	77.4257	451.172	78.7964	451.172	77.6265	451.172	80.4099	451.172	78.4774	451.172	81.5475	451.172	79.745	451.172	82.1645	451.172	80.9681	451.172	82.2596	451.172	81.8471
465.82	88.1868	465.82	87.8576	465.82	88.0722	465.82	87.0822	465.82	87.5333	465.82	85.8778	465.82	86.6053	465.82	84.292	465.82	85.3398	465.82	82.4247	465.82	83.8022	465.82	80.4629	465.82	82.0699	465.82	78.7014	465.82	80.2309	465.82	77.4691	465.82	78.3858	465.82	76.9282	465.82	76.6694	465.82	76.9593	465.82	75.3556	465.82	77.2997	465.82	74.9983	465.82	77.7433	465.82	75.9842	465.82	78.2342	465.82	77.7863	465.82	78.8453	465.82	79.6044	465.82	79.6519	465.82	81.0203	465.82	80.5888	465.82	81.9006	465.82	81.459	465.82	82.2318	465.82	82.0555
483.398	87.7062	483.398	87.4111	483.398	87.5593	483.398	86.6882	483.398	86.9751	483.398	85.5687	483.398	85.9811	483.398	84.1024	483.398	84.6325	483.398	82.3675	483.398	83.0181	483.398	80.4938	483.398	81.263	483.398	78.6925	483.398	79.5254	483.398	77.2557	483.398	77.9809	483.398	76.452	483.398	76.7973	483.398	76.3444	483.398	76.123	483.398	76.7479	483.398	76.098	483.398	77.4108	483.398	76.7964	483.398	78.1913	483.398	78.0671	483.398	79.0728	483.398	79.5465	483.398	80.0532	483.398	80.8785	483.398	81.0367	483.398	81.8392	483.398	81.8465	483.398	82.3245	483.398	82.3125
499.512	87.5135	499.512	87.18	499.512	87.3701	499.512	86.373	499.512	86.762	499.512	85.1159	499.512	85.7166	499.512	83.4627	499.512	84.2787	499.512	81.5178	499.512	82.5166	499.512	79.4652	499.512	80.5309	499.512	77.5852	499.512	78.4641	499.512	76.2005	499.512	76.4949	499.512	75.5162	499.512	74.8083	499.512	75.4902	499.512	73.6094	499.512	75.9091	499.512	73.2686	499.512	76.5772	499.512	74.2	499.512	77.4237	499.512	76.1364	499.512	78.4582	499.512	78.2843	499.512	79.6323	499.512	80.101	499.512	80.7734	499.512	81.3725	499.512	81.6612	499.512	82.0421	499.512	82.1202
517.09	87.3445	517.09	87.0832	517.09	87.0738	517.09	86.2892	517.09	86.2884	517.09	84.9764	517.09	85.0275	517.09	83.1777	517.09	83.3606	517.09	80.9596	517.09	81.3982	517.09	78.4556	517.09	79.2996	517.09	75.9287	517.09	77.2721	517.09	73.8243	517.09	75.5519	517.09	72.657	517.09	74.3481	517.09	72.6305	517.09	73.7685	517.09	73.4431	517.09	73.8182	517.09	74.6217	517.09	74.461	517.09	75.8641	517.09	75.5979	517.09	77.0721	517.09	77.0054	517.09	78.223	517.09	78.3903	517.09	79.2452	517.09	79.5004	517.09	79.9976	517.09	80.1734	517.09	80.336
536.133	87.0654	536.133	86.7808	536.133	86.7963	536.133	85.9458	536.133	85.981	536.133	84.5737	536.133	84.643	536.133	82.6936	536.133	82.8326	536.133	80.3656	536.133	80.6485	536.133	77.7196	536.133	78.2673	536.133	75.0255	536.133	75.9688	536.133	72.7592	536.133	74.1041	536.133	71.4789	536.133	72.9576	536.133	71.3999	536.133	72.589	536.133	72.2073	536.133	72.8873	536.133	73.4605	536.133	73.7795	536.133	74.9269	536.133	75.2183	536.133	76.5231	536.133	76.974	536.133	78.125	536.133	78.6706	536.133	79.523	536.133	79.9969	536.133	80.5107	536.133	80.7799	536.133	80.9509
555.176	86.7771	555.176	86.4083	555.176	86.5867	555.176	85.4959	555.176	85.8354	555.176	84.071	555.176	84.5327	555.176	82.1841	555.176	82.7013	555.176	79.9149	555.176	80.385	555.176	77.4016	555.176	77.6773	555.176	74.8998	555.176	74.7831	555.176	72.8378	555.176	72.1034	555.176	71.7047	555.176	70.221	555.176	71.687	555.176	69.6265	555.176	72.4989	555.176	70.409	555.176	73.7122	555.176	72.245	555.176	75.0802	555.176	74.5811	555.176	76.5422	555.176	76.8875	555.176	78.0447	555.176	78.8134	555.176	79.4244	555.176	80.1782	555.176	80.4638	555.176	80.908	555.176	80.9908
574.219	86.8437	574.219	86.5193	574.219	86.5365	574.219	85.5796	574.219	85.5949	574.219	84.0524	574.219	84.0317	574.219	81.9745	574.219	81.8813	574.219	79.3923	574.219	79.2104	574.219	76.3838	574.219	76.1419	574.219	73.1453	574.219	72.9098	574.219	70.1752	574.219	69.9608	574.219	68.3472	574.219	67.969	574.219	68.3079	574.219	67.4254	574.219	69.6825	574.219	68.3091	574.219	71.5968	574.219	70.3075	574.219	73.5371	574.219	72.8607	574.219	75.3751	574.219	75.3765	574.219	77.0739	574.219	77.4819	574.219	78.5226	574.219	78.9984	574.219	79.5549	574.219	79.8521	574.219	80.027
594.727	86.3818	594.727	86.0085	594.727	86.1328	594.727	85.0206	594.727	85.2613	594.727	83.4327	594.727	83.774	594.727	81.2643	594.727	81.687	594.727	78.5408	594.727	79.0352	594.727	75.3136	594.727	75.9055	594.727	71.7509	594.727	72.5224	594.727	68.3912	594.727	69.4173	594.727	66.3668	594.727	67.48	594.727	66.5582	594.727	67.3071	594.727	68.4604	594.727	68.6647	594.727	71.0165	594.727	71.0203	594.727	73.5701	594.727	73.7652	594.727	75.8764	594.727	76.3455	594.727	77.8449	594.727	78.4377	594.727	79.395	594.727	79.9116	594.727	80.4379	594.727	80.7313	594.727	80.899
615.234	84.9992	615.234	84.5801	615.234	84.6437	615.234	83.3976	615.234	83.5161	615.234	81.4812	615.234	81.6349	615.234	78.8876	615.234	79.0467	615.234	75.7077	615.234	75.8479	615.234	72.0622	615.234	72.1951	615.234	68.1103	615.234	68.2526	615.234	64.2453	615.234	64.2324	615.234	61.7734	615.234	61.2483	615.234	62.4131	615.234	60.9872	615.234	65.342	615.234	62.9646	615.234	68.952	615.234	67.2962	615.234	72.5229	615.234	72.3212	615.234	75.7674	615.234	76.4931	615.234	78.5254	615.234	79.5523	615.234	80.6747	615.234	81.5661	615.234	82.1196	615.234	82.6219	615.234	82.7878
637.207	85.8475	637.207	85.4202	637.207	85.4078	637.207	84.129	637.207	84.0647	637.207	81.9378	637.207	81.7387	637.207	78.7489	637.207	78.2716	637.207	74.3463	637.207	73.3236	637.207	68.2434	637.207	66.0082	637.207	59.1508	637.207	53.1317	637.207	45.2344	637.207	52.2146	637.207	48.3649	637.207	53.0205	637.207	54.731	637.207	47.678	637.207	61.4336	637.207	52.4147	637.207	66.4034	637.207	61.142	637.207	70.4034	637.207	67.8174	637.207	73.8418	637.207	72.9024	637.207	76.7392	637.207	76.6061	637.207	78.9669	637.207	79.1056	637.207	80.3952	637.207	80.5227	637.207	80.9341
659.18	85.6595	659.18	85.1043	659.18	85.3206	659.18	83.6481	659.18	84.0559	659.18	81.2358	659.18	81.7759	659.18	77.7073	659.18	78.2733	659.18	72.6078	659.18	73.0387	659.18	64.3227	659.18	64.4072	659.18	36.6008	659.18	46.0145	659.18	59.0121	659.18	58.3155	659.18	59.8665	659.18	58.2698	659.18	55.3204	659.18	55.515	659.18	52.0231	659.18	57.3819	659.18	62.5244	659.18	62.1907	659.18	68.7586	659.18	67.7594	659.18	73.3715	659.18	72.9095	659.18	76.918	659.18	76.8792	659.18	79.4806	659.18	79.6018	659.18	81.0579	659.18	81.1604	659.18	81.629
682.617	86.3337	682.617	85.8808	682.617	85.8835	682.617	84.5215	682.617	84.4892	682.617	82.203	682.617	82.0453	682.617	78.7848	682.617	78.3127	682.617	73.9194	682.617	72.694	682.617	66.7278	682.617	63.4377	682.617	58.7262	682.617	59.1784	682.617	61.6797	682.617	63.2025	682.617	62.5075	682.617	62.7271	682.617	60.5091	682.617	59.5583	682.617	58.1792	682.617	56.2494	682.617	60.4646	682.617	58.0436	682.617	65.0289	682.617	65.6001	682.617	70.0788	682.617	72.281	682.617	74.6152	682.617	76.8759	682.617	78.0605	682.617	79.7527	682.617	80.305	682.617	81.1936	682.617	81.354
707.52	87.1061	707.52	86.5519	707.52	86.711	707.52	85.0456	707.52	85.3293	707.52	82.5292	707.52	82.8552	707.52	78.8093	707.52	79.0159	707.52	73.2673	707.52	73.0293	707.52	63.2939	707.52	62.9467	707.52	59.3878	707.52	65.5149	707.52	65.9983	707.52	69.2643	707.52	66.9696	707.52	69.8198	707.52	64.9482	707.52	68.3954	707.52	58.5953	707.52	64.8336	707.52	55.2125	707.52	56.0041	707.52	65.1706	707.52	60.3219	707.52	70.1964	707.52	69.4552	707.52	73.8206	707.52	74.477	707.52	76.6626	707.52	77.5533	707.52	78.6123	707.52	79.1657	707.52	79.4859
732.422	86.2856	732.422	85.7163	732.422	85.8788	732.422	84.1475	732.422	84.4595	732.422	81.4841	732.422	81.8906	732.422	77.4538	732.422	77.8029	732.422	71.168	732.422	71.1165	732.422	59.3304	732.422	60.6542	732.422	64.4347	732.422	66.4228	732.422	68.6628	732.422	69.1124	732.422	69.6286	732.422	69.0383	732.422	68.745	732.422	67.3517	732.422	65.9376	732.422	64.4612	732.422	58.7653	732.422	60.4644	732.422	56.4148	732.422	60.3875	732.422	68.1801	732.422	68.0613	732.422	73.7709	732.422	73.7989	732.422	77.2683	732.422	77.4568	732.422	79.3169	732.422	79.4694	732.422	80.0552
757.324	86.7233	757.324	86.1516	757.324	86.1898	757.324	84.4711	757.324	84.4804	757.324	81.5819	757.324	81.3964	757.324	77.1526	757.324	76.3732	757.324	69.9706	757.324	67.0844	757.324	53.542	757.324	61.1006	757.324	65.4444	757.324	69.3524	757.324	69.0966	757.324	71.6507	757.324	69.8214	757.324	71.9688	757.324	68.943	757.324	70.9694	757.324	66.637	757.324	68.4502	757.324	61.9329	757.324	62.8251	757.324	51.4981	757.324	60.3342	757.324	66.0206	757.324	70.4047	757.324	73.109	757.324	75.8502	757.324	77.3704	757.324	79.0675	757.324	79.8877	757.324	80.7086	757.324	80.9705
785.156	87.3522	785.156	86.6898	785.156	86.8772	785.156	84.8346	785.156	85.2238	785.156	81.5815	785.156	82.2082	785.156	76.2902	785.156	77.2824	785.156	65.9008	785.156	68.5845	785.156	61.7666	785.156	64.7462	785.156	69.7484	785.156	70.7435	785.156	71.6474	785.156	72.6111	785.156	71.5517	785.156	72.7928	785.156	70.0522	785.156	72.1013	785.156	66.827	785.156	70.7679	785.156	60.0334	785.156	68.4721	785.156	50.9396	785.156	63.6675	785.156	64.1263	785.156	61.9545	785.156	70.4804	785.156	71.0194	785.156	74.9623	785.156	75.9608	785.156	77.8005	785.156	78.4068	785.156	78.9621
811.523	86.4688	811.523	85.8145	811.523	85.9013	811.523	83.9043	811.523	84.0415	811.523	80.5664	811.523	80.6097	811.523	75.1822	811.523	74.623	811.523	64.288	811.523	58.9555	811.523	62.8873	811.523	67.1727	811.523	70.5015	811.523	72.1085	811.523	72.7431	811.523	73.3311	811.523	73.1261	811.523	73.1007	811.523	72.3888	811.523	72.1248	811.523	70.6551	811.523	70.626	811.523	67.4384	811.523	68.1397	811.523	60.0763	811.523	62.0848	811.523	58.6894	811.523	58.5691	811.523	69.6433	811.523	70.5913	811.523	74.7887	811.523	75.6506	811.523	77.6057	811.523	78.0867	811.523	78.6758
840.82	87.4437	840.82	86.6699	840.82	86.8808	840.82	84.453	840.82	84.9292	840.82	80.4287	840.82	81.287	840.82	73.3429	840.82	74.847	840.82	54.4821	840.82	61.1431	840.82	68.1942	840.82	70.1223	840.82	71.9201	840.82	73.7457	840.82	73.258	840.82	74.3961	840.82	73.7263	840.82	73.6723	840.82	73.5104	840.82	72.3728	840.82	72.4457	840.82	71.1958	840.82	70.1396	840.82	70.046	840.82	65.3593	840.82	67.1322	840.82	52.4698	840.82	63.459	840.82	68.4117	840.82	72.5555	840.82	75.4359	840.82	78.0351	840.82	79.2578	840.82	80.5609	840.82	80.9076
870.117	86.6087	870.117	85.8362	870.117	86.0348	870.117	83.6228	870.117	84.0134	870.117	79.5721	870.117	80.0884	870.117	72.0922	870.117	72.4018	870.117	51.8868	870.117	59.0105	870.117	70.4531	870.117	72.2385	870.117	73.8103	870.117	75.1709	870.117	74.5926	870.117	75.7971	870.117	74.158	870.117	75.4406	870.117	73.0677	870.117	74.6538	870.117	71.4971	870.117	73.616	870.117	69.0276	870.117	72.1307	870.117	64.1773	870.117	69.4237	870.117	49.57	870.117	62.9405	870.117	65.9085	870.117	65.0143	870.117	72.7722	870.117	73.1916	870.117	76.3725	870.117	76.7815	870.117	77.6921
900.879	86.052	900.879	85.2474	900.879	85.439	900.879	82.8703	900.879	83.3246	900.879	78.3452	900.879	79.2089	900.879	69.0581	900.879	70.8097	900.879	62.6917	900.879	62.6727	900.879	72.1583	900.879	72.9976	900.879	74.7492	900.879	75.5574	900.879	75.4739	900.879	75.9623	900.879	75.2471	900.879	75.4692	900.879	74.4524	900.879	74.8683	900.879	73.2388	900.879	74.5017	900.879	71.2905	900.879	73.9065	900.879	67.521	900.879	71.9734	900.879	56.6668	900.879	66.7311	900.879	63.9836	900.879	67.7781	900.879	72.7306	900.879	74.9851	900.879	76.9656	900.879	78.1608	900.879	78.6954
933.105	87.2559	933.105	86.5096	933.105	86.5885	933.105	84.2742	933.105	84.3869	933.105	80.1218	933.105	80.1017	933.105	71.9594	933.105	70.9771	933.105	61.9609	933.105	66.0495	933.105	73.6807	933.105	75.2212	933.105	76.4771	933.105	77.5462	933.105	76.8236	933.105	77.4494	933.105	75.776	933.105	75.5427	933.105	73.8941	933.105	72.1121	933.105	72.0882	933.105	70.6839	933.105	71.2339	933.105	73.1936	933.105	70.2752	933.105	74.3049	933.105	67.281	933.105	72.5733	933.105	64.5262	933.105	68.8453	933.105	71.0347	933.105	72.6899	933.105	75.5359	933.105	76.4862	933.105	77.2935
965.332	88.4956	965.332	87.6838	965.332	87.6365	965.332	85.0186	965.332	85.0792	965.332	80.0002	965.332	80.3129	965.332	71.8739	965.332	70.0145	965.332	71.7144	965.332	70.3824	965.332	76.0293	965.332	77.8815	965.332	78.293	965.332	80.5276	965.332	79.2587	965.332	81.2502	965.332	79.0852	965.332	80.6222	965.332	77.8115	965.332	78.6286	965.332	75.6166	965.332	75.0394	965.332	73.3322	965.332	71.6434	965.332	71.909	965.332	72.4694	965.332	69.4991	965.332	71.8104	965.332	58.2401	965.332	62.5259	965.332	68.0178	965.332	68.7199	965.332	75.2776	965.332	75.9072	965.332	77.3976
1000.49	89.1344	1000.49	88.1762	1000.49	88.2112	1000.49	85.1009	1000.49	85.2558	1000.49	78.8941	1000.49	79.3699	1000.49	67.8839	1000.49	66.9142	1000.49	74.7263	1000.49	74.4347	1000.49	78.1911	1000.49	78.7833	1000.49	79.7691	1000.49	80.4752	1000.49	80.7284	1000.49	81.0296	1000.49	81.0478	1000.49	80.778	1000.49	80.4382	1000.49	79.6204	1000.49	78.6074	1000.49	77.1975	1000.49	75.3042	1000.49	73.4712	1000.49	71.2105	1000.49	71.4594	1000.49	68.2839	1000.49	70.7218	1000.49	58.9006	1000.49	60.5365	1000.49	68.8914	1000.49	70.7634	1000.49	76.6969	1000.49	77.635	1000.49	79.061
1035.64	88.2849	1035.64	87.2263	1035.64	87.215	1035.64	83.7033	1035.64	83.8998	1035.64	76.3654	1035.64	77.4483	1035.64	69.8675	1035.64	68.5782	1035.64	75.5303	1035.64	75.1786	1035.64	76.9681	1035.64	78.4464	1035.64	77.047	1035.64	79.7336	1035.64	77.603	1035.64	80.3323	1035.64	78.7537	1035.64	80.672	1035.64	79.6229	1035.64	80.5332	1035.64	79.575	1035.64	79.3874	1035.64	78.0925	1035.64	76.7749	1035.64	74.5082	1035.64	73.4649	1035.64	68.1817	1035.64	71.5585	1035.64	59.943	1035.64	64.9456	1035.64	67.8824	1035.64	67.5908	1035.64	75.3663	1035.64	76.3091	1035.64	77.9516
1072.27	88.3659	1072.27	87.303	1072.27	87.1567	1072.27	83.5716	1072.27	83.3886	1072.27	74.8485	1072.27	75.4251	1072.27	70.8828	1072.27	70.2255	1072.27	77.7891	1072.27	77.1994	1072.27	79.1697	1072.27	79.6175	1072.27	78.77	1072.27	80.2662	1072.27	78.0915	1072.27	79.9795	1072.27	77.7629	1072.27	79.2753	1072.27	77.4707	1072.27	78.5727	1072.27	76.7822	1072.27	77.7629	1072.27	75.4687	1072.27	76.1299	1072.27	73.043	1072.27	73.2069	1072.27	67.6306	1072.27	69.8554	1072.27	51.7546	1072.27	63.0031	1072.27	71.4185	1072.27	68.3664	1072.27	76.8328	1072.27	76.328	1072.27	78.4115
1108.89	88.1856	1108.89	87.0496	1108.89	86.8363	1108.89	83.0152	1108.89	82.505	1108.89	73.6691	1108.89	71.9385	1108.89	72.9364	1108.89	73.1102	1108.89	78.1869	1108.89	78.6315	1108.89	79.3521	1108.89	80.0903	1108.89	79.1152	1108.89	80.2286	1108.89	78.3242	1108.89	79.964	1108.89	77.3	1108.89	79.7248	1108.89	76.4305	1108.89	79.4323	1108.89	75.9441	1108.89	78.5521	1108.89	75.253	1108.89	76.5323	1108.89	73.4412	1108.89	73.4793	1108.89	69.8241	1108.89	70.6346	1108.89	60.7894	1108.89	64.6122	1108.89	66.5241	1108.89	65.6714	1108.89	75.0521	1108.89	75.2125	1108.89	77.3826
1148.44	88.1429	1148.44	86.8983	1148.44	86.8581	1148.44	82.6492	1148.44	82.4738	1148.44	71.9863	1148.44	71.1951	1148.44	74.313	1148.44	74.1976	1148.44	79.4003	1148.44	79.3068	1148.44	80.1916	1148.44	80.4046	1148.44	79.3325	1148.44	79.9299	1148.44	78.2677	1148.44	78.7972	1148.44	77.8301	1148.44	77.9773	1148.44	77.6693	1148.44	78.0675	1148.44	77.1673	1148.44	78.1754	1148.44	75.9623	1148.44	77.0477	1148.44	73.7938	1148.44	74.2245	1148.44	70.3729	1148.44	70.9575	1148.44	62.436	1148.44	64.9886	1148.44	65.3224	1148.44	66.9134	1148.44	75.0849	1148.44	75.9597	1148.44	77.8284
1189.45	87.5733	1189.45	86.1648	1189.45	86.3608	1189.45	81.5198	1189.45	82.0008	1189.45	70.3826	1189.45	71.1657	1189.45	75.7967	1189.45	75.0285	1189.45	79.8715	1189.45	79.777	1189.45	80.5203	1189.45	80.9067	1189.45	79.6003	1189.45	80.4279	1189.45	78.0829	1189.45	78.9311	1189.45	76.9676	1189.45	77.0604	1189.45	76.6781	1189.45	76.3771	1189.45	76.5707	1189.45	77.0804	1189.45	75.6658	1189.45	76.9882	1189.45	73.0736	1189.45	74.7321	1189.45	68.8713	1189.45	70.5751	1189.45	64.517	1189.45	65.2889	1189.45	56.5891	1189.45	63.1952	1189.45	71.9822	1189.45	73.6066	1189.45	75.6485
1230.47	87.512	1230.47	86.1634	1230.47	86.106	1230.47	81.3651	1230.47	81.2759	1230.47	69.0547	1230.47	69.3755	1230.47	76.9469	1230.47	76.4228	1230.47	80.8192	1230.47	80.3296	1230.47	81.312	1230.47	81.1981	1230.47	80.1052	1230.47	80.8021	1230.47	77.9793	1230.47	79.6254	1230.47	76.1274	1230.47	77.8383	1230.47	75.9675	1230.47	76.0991	1230.47	76.6669	1230.47	75.7846	1230.47	76.4441	1230.47	76.0231	1230.47	74.015	1230.47	74.3317	1230.47	67.6145	1230.47	69.4564	1230.47	57.2703	1230.47	63.5767	1230.47	66.2476	1230.47	66.9274	1230.47	74.2163	1230.47	75.0383	1230.47	77.0781
1274.41	87.136	1274.41	85.7961	1274.41	85.4115	1274.41	80.5529	1274.41	79.985	1274.41	71.3541	1274.41	71.4241	1274.41	78.7483	1274.41	77.7116	1274.41	81.4412	1274.41	80.7648	1274.41	81.7464	1274.41	81.48	1274.41	81.0401	1274.41	80.7323	1274.41	79.6272	1274.41	78.9071	1274.41	77.4521	1274.41	77.109	1274.41	75.1631	1274.41	77.1713	1274.41	75.1904	1274.41	78.027	1274.41	76.4954	1274.41	77.6072	1274.41	75.7394	1274.41	75.0841	1274.41	70.6858	1274.41	70.4854	1274.41	50.8512	1274.41	63.2234	1274.41	64.8795	1274.41	66.0157	1274.41	73.2292	1274.41	74.5829	1274.41	76.401
1319.82	87.148	1319.82	85.3978	1319.82	85.282	1319.82	79.0047	1319.82	78.5671	1319.82	71.7842	1319.82	72.8363	1319.82	79.2137	1319.82	79.4086	1319.82	81.241	1319.82	81.0858	1319.82	81.0673	1319.82	81.3181	1319.82	79.6893	1319.82	80.8605	1319.82	77.7103	1319.82	79.264	1319.82	76.0509	1319.82	75.9034	1319.82	75.9102	1319.82	72.672	1319.82	77.2039	1319.82	75.9156	1319.82	78.2136	1319.82	78.1737	1319.82	77.3327	1319.82	76.8501	1319.82	72.6985	1319.82	70.6323	1319.82	57.2023	1319.82	57.7997	1319.82	66.8017	1319.82	67.956	1319.82	73.9523	1319.82	75.6805	1319.82	77.3042
1366.7	87.3518	1366.7	85.4547	1366.7	85.4911	1366.7	78.59	1366.7	78.1454	1366.7	73.2572	1366.7	74.0434	1366.7	80.1732	1366.7	80.4778	1366.7	81.3912	1366.7	81.2701	1366.7	80.3455	1366.7	80.7931	1366.7	78.4007	1366.7	80.8105	1366.7	75.9502	1366.7	80.4866	1366.7	72.6324	1366.7	78.4968	1366.7	70.3213	1366.7	73.3907	1366.7	74.4337	1366.7	71.2829	1366.7	78.3611	1366.7	76.95	1366.7	79.521	1366.7	77.9329	1366.7	77.0747	1366.7	73.7794	1366.7	70.1571	1366.7	61.0081	1366.7	71.2833	1366.7	71.7911	1366.7	75.8455	1366.7	77.1651	1366.7	78.4046
1413.57	88.0052	1413.57	85.9764	1413.57	86.033	1413.57	77.9167	1413.57	77.6573	1413.57	75.8067	1413.57	76.5216	1413.57	82.3138	1413.57	82.8454	1413.57	82.9493	1413.57	83.0597	1413.57	81.3663	1413.57	80.7632	1413.57	79.9306	1413.57	78.7926	1413.57	79.7857	1413.57	78.6781	1413.57	79.1803	1413.57	77.9998	1413.57	76.0464	1413.57	74.8233	1413.57	62.6888	1413.57	71.822	1413.57	74.7295	1413.57	77.6877	1413.57	80.4651	1413.57	80.6239	1413.57	80.9175	1413.57	79.701	1413.57	77.537	1413.57	74.6312	1413.57	76.0677	1413.57	75.6539	1413.57	79.7645	1413.57	80.8488	1413.57	82.017
1463.38	88.1601	1463.38	86.3186	1463.38	85.976	1463.38	78.2128	1463.38	77.7776	1463.38	76.6656	1463.38	76.399	1463.38	83.2107	1463.38	83.3988	1463.38	84.0694	1463.38	84.4958	1463.38	82.326	1463.38	82.6955	1463.38	79.0226	1463.38	79.5321	1463.38	77.0203	1463.38	78.5839	1463.38	78.0295	1463.38	79.2746	1463.38	78.3212	1463.38	77.7013	1463.38	75.4385	1463.38	69.517	1463.38	66.3612	1463.38	73.6183	1463.38	77.4469	1463.38	79.5135	1463.38	81.0065	1463.38	79.69	1463.38	79.268	1463.38	76.253	1463.38	74.8525	1463.38	74.5888	1463.38	77.3374	1463.38	79.7407	1463.38	80.4949
1516.11	87.9872	1516.11	86.1822	1516.11	85.6234	1516.11	78.0905	1516.11	77.346	1516.11	77.025	1516.11	76.2561	1516.11	83.4414	1516.11	82.8396	1516.11	84.5953	1516.11	84.3719	1516.11	83.3428	1516.11	83.1916	1516.11	80.1622	1516.11	79.5998	1516.11	75.7533	1516.11	75.4069	1516.11	75.0814	1516.11	77.1816	1516.11	76.5906	1516.11	78.6292	1516.11	75.2358	1516.11	75.4633	1516.11	67.6174	1516.11	64.0829	1516.11	74.9601	1516.11	77.6276	1516.11	80.2815	1516.11	79.8069	1516.11	80.1195	1516.11	77.6708	1516.11	75.8748	1516.11	74.8143	1516.11	76.2431	1516.11	78.0981	1516.11	79.2657
1568.85	88.3522	1568.85	86.2502	1568.85	85.9626	1568.85	78.0783	1568.85	77.2378	1568.85	78.0251	1568.85	78.0796	1568.85	83.3262	1568.85	82.9311	1568.85	84.473	1568.85	83.9358	1568.85	83.5099	1568.85	83.2604	1568.85	80.8197	1568.85	81.1753	1568.85	76.5287	1568.85	77.1856	1568.85	72.485	1568.85	71.6265	1568.85	73.6856	1568.85	73.8613	1568.85	75.4294	1568.85	75.4183	1568.85	73.5973	1568.85	70.8864	1568.85	64.7656	1568.85	70.5225	1568.85	76.9628	1568.85	77.7849	1568.85	80.113	1568.85	79.0941	1568.85	77.3167	1568.85	75.952	1568.85	73.709	1568.85	75.1269	1568.85	77.1951
1624.51	88.573	1624.51	86.1728	1624.51	85.9723	1624.51	76.9864	1624.51	76.3615	1624.51	80.5394	1624.51	80.2153	1624.51	83.9894	1624.51	83.6209	1624.51	83.9317	1624.51	83.7417	1624.51	82.6732	1624.51	82.8151	1624.51	80.5834	1624.51	81.2254	1624.51	77.6348	1624.51	78.7207	1624.51	75.0922	1624.51	75.6264	1624.51	75.0553	1624.51	74.8378	1624.51	75.6895	1624.51	75.2235	1624.51	75.8164	1624.51	73.1096	1624.51	74.3579	1624.51	71.8594	1624.51	71.8863	1624.51	72.1372	1624.51	74.8302	1624.51	74.0486	1624.51	73.0423	1624.51	71.6898	1624.51	61.4225	1624.51	67.2735	1624.51	73.1139
1681.64	88.5157	1681.64	86.1469	1681.64	85.7849	1681.64	76.7682	1681.64	76.001	1681.64	82.1007	1681.64	81.212	1681.64	85.1817	1681.64	84.4905	1681.64	84.4122	1681.64	84.1123	1681.64	82.0349	1681.64	82.4583	1681.64	79.1044	1681.64	80.4305	1681.64	75.469	1681.64	77.5376	1681.64	70.3975	1681.64	72.932	1681.64	68.4427	1681.64	71.4519	1681.64	70.651	1681.64	74.6312	1681.64	71.046	1681.64	74.2398	1681.64	74.4098	1681.64	73.9963	1681.64	74.8617	1681.64	74.2285	1681.64	71.5854	1681.64	71.3153	1681.64	69.4265	1681.64	68.4761	1681.64	58.6926	1681.64	64.229	1681.64	72.1006
1741.7	88.2693	1741.7	86.0251	1741.7	85.1903	1741.7	76.3448	1741.7	76.127	1741.7	82.8047	1741.7	82.0469	1741.7	85.2989	1741.7	84.8127	1741.7	84.1448	1741.7	84.0469	1741.7	81.5493	1741.7	82.0383	1741.7	78.4454	1741.7	80.0519	1741.7	75.1678	1741.7	77.8865	1741.7	72.3235	1741.7	75.6165	1741.7	73.0254	1741.7	74.4776	1741.7	74.6125	1741.7	72.8905	1741.7	71.8125	1741.7	69.2686	1741.7	72.2091	1741.7	73.8767	1741.7	76.5482	1741.7	75.5895	1741.7	73.3033	1741.7	71.2088	1741.7	64.9898	1741.7	66.5762	1741.7	65.1136	1741.7	67.2798	1741.7	73.4246
1803.22	88.3317	1803.22	85.7941	1803.22	84.8857	1803.22	76.6351	1803.22	75.9124	1803.22	83.4609	1803.22	83.3054	1803.22	85.8007	1803.22	85.3079	1803.22	84.3968	1803.22	84.036	1803.22	81.2225	1803.22	81.5259	1803.22	77.9478	1803.22	79.1958	1803.22	74.9203	1803.22	76.5652	1803.22	71.4133	1803.22	72.1528	1803.22	71.2441	1803.22	69.6522	1803.22	73.343	1803.22	72.9642	1803.22	70.5993	1803.22	71.3436	1803.22	69.916	1803.22	71.2272	1803.22	75.187	1803.22	76.4295	1803.22	74.0941	1803.22	73.2585	1803.22	59.9031	1803.22	60.9332	1803.22	69.5996	1803.22	70.6665	1803.22	75.1126
1866.21	88.4505	1866.21	85.5816	1866.21	85.0496	1866.21	76.4039	1866.21	74.8304	1866.21	83.9315	1866.21	83.9349	1866.21	85.565	1866.21	85.6481	1866.21	83.6273	1866.21	83.7582	1866.21	80.2924	1866.21	80.6465	1866.21	77.467	1866.21	78.465	1866.21	75.649	1866.21	77.0395	1866.21	73.043	1866.21	74.5546	1866.21	68.2391	1866.21	71.3825	1866.21	72.7069	1866.21	71.8319	1866.21	74.6518	1866.21	71.4028	1866.21	69.0109	1866.21	70.5267	1866.21	72.0966	1866.21	74.6002	1866.21	73.1359	1866.21	71.9913	1866.21	60.5573	1866.21	61.9335	1866.21	67.1145	1866.21	68.2608	1866.21	73.2425
1932.13	88.3262	1932.13	85.4959	1932.13	85.0659	1932.13	76.1213	1932.13	75.8472	1932.13	83.8722	1932.13	83.393	1932.13	85.557	1932.13	85.6131	1932.13	83.7713	1932.13	83.742	1932.13	80.1262	1932.13	79.7552	1932.13	76.3727	1932.13	77.2149	1932.13	73.8411	1932.13	76.5783	1932.13	71.6802	1932.13	73.9405	1932.13	67.539	1932.13	65.5915	1932.13	65.7269	1932.13	70.5528	1932.13	71.8166	1932.13	72.8055	1932.13	72.0189	1932.13	67.9917	1932.13	72.179	1932.13	74.9518	1932.13	74.088	1932.13	72.8023	1932.13	67.2219	1932.13	60.4669	1932.13	68.0391	1932.13	69.3423	1932.13	74.5064
1999.51	87.7543	1999.51	85.1315	1999.51	84.0086	1999.51	77.458	1999.51	78.2248	1999.51	84.035	1999.51	83.6249	1999.51	85.6552	1999.51	85.3285	1999.51	83.3992	1999.51	83.4727	1999.51	78.5952	1999.51	78.9877	1999.51	74.6374	1999.51	75.8652	1999.51	74.189	1999.51	77.0096	1999.51	73.5484	1999.51	77.1746	1999.51	71.0142	1999.51	73.7036	1999.51	69.666	1999.51	68.4933	1999.51	69.2395	1999.51	70.53	1999.51	69.4228	1999.51	67.4809	1999.51	72.5558	1999.51	73.3475	1999.51	73.0976	1999.51	72.8452	1999.51	68.2862	1999.51	61.7522	1999.51	64.2339	1999.51	69.1704	1999.51	74.1789
2069.82	87.9262	2069.82	84.6649	2069.82	83.8106	2069.82	77.5694	2069.82	77.8091	2069.82	84.1535	2069.82	84.0758	2069.82	85.0783	2069.82	84.8808	2069.82	82.369	2069.82	83.0996	2069.82	78.1926	2069.82	79.6472	2069.82	75.6273	2069.82	76.62	2069.82	74.2721	2069.82	75.7484	2069.82	73.8247	2069.82	75.2394	2069.82	74.0666	2069.82	71.828	2069.82	73.3059	2069.82	63.1374	2069.82	72.3716	2069.82	71.4998	2069.82	70.085	2069.82	69.5098	2069.82	69.785	2069.82	70.7179	2069.82	73.0393	2069.82	71.8362	2069.82	66.1431	2069.82	65.4961	2069.82	59.2729	2069.82	63.674	2069.82	70.4972
2143.07	88.0727	2143.07	84.6618	2143.07	84.6665	2143.07	77.9372	2143.07	77.7903	2143.07	84.6172	2143.07	84.3948	2143.07	85.2608	2143.07	84.7965	2143.07	81.7794	2143.07	82.308	2143.07	78.0646	2143.07	79.181	2143.07	77.4247	2143.07	77.5472	2143.07	77.2053	2143.07	76.8898	2143.07	74.9509	2143.07	77.0236	2143.07	67.8994	2143.07	76.4186	2143.07	69.9706	2143.07	73.4977	2143.07	72.1613	2143.07	69.5423	2143.07	71.3835	2143.07	70.6643	2143.07	69.6241	2143.07	71.4267	2143.07	72.1855	2143.07	70.8016	2143.07	60.8874	2143.07	62.5737	2143.07	66.4333	2143.07	68.3961	2143.07	71.8898
2219.24	87.4447	2219.24	84.8262	2219.24	84.1742	2219.24	78.6183	2219.24	79.392	2219.24	84.5206	2219.24	84.6099	2219.24	84.9312	2219.24	84.4865	2219.24	82.2295	2219.24	81.6197	2219.24	78.8944	2219.24	79.8985	2219.24	76.0772	2219.24	79.1115	2219.24	75.2173	2219.24	77.6587	2219.24	74.9935	2219.24	75.6878	2219.24	72.742	2219.24	72.2555	2219.24	73.649	2219.24	71.7737	2219.24	72.472	2219.24	70.9337	2219.24	70.3232	2219.24	70.6648	2219.24	71.6969	2219.24	69.5135	2219.24	72.9889	2219.24	70.6884	2219.24	63.6531	2219.24	57.241	2219.24	68.3146	2219.24	68.9729	2219.24	71.4011
2296.88	86.8706	2296.88	84.157	2296.88	83.28	2296.88	78.8494	2296.88	79.1192	2296.88	83.7789	2296.88	84.4081	2296.88	84.4535	2296.88	84.0043	2296.88	81.9185	2296.88	80.9983	2296.88	78.9033	2296.88	80.0671	2296.88	78.6805	2296.88	80.7246	2296.88	77.9912	2296.88	79.5732	2296.88	77.076	2296.88	76.5974	2296.88	75.0904	2296.88	75.7959	2296.88	66.5762	2296.88	73.8077	2296.88	75.1477	2296.88	72.4718	2296.88	68.153	2296.88	71.014	2296.88	71.5452	2296.88	68.681	2296.88	70.9296	2296.88	71.4448	2296.88	66.3926	2296.88	55.4012	2296.88	69.0711	2296.88	65.1081	2296.88	69.1551
2378.91	87.1334	2378.91	84.1456	2378.91	84.4132	2378.91	79.1702	2378.91	78.8653	2378.91	84.1371	2378.91	84.467	2378.91	84.4163	2378.91	83.5039	2378.91	80.8172	2378.91	81.2722	2378.91	81.9243	2378.91	80.6737	2378.91	81.3887	2378.91	80.1184	2378.91	78.3918	2378.91	80.2321	2378.91	76.3236	2378.91	78.5782	2378.91	75.4957	2378.91	75.7448	2378.91	75.2217	2378.91	73.4552	2378.91	71.7176	2378.91	72.9859	2378.91	73.8774	2378.91	72.2033	2378.91	71.2404	2378.91	67.0031	2378.91	70.9007	2378.91	70.6245	2378.91	64.9873	2378.91	54.385	2378.91	69.7619	2378.91	64.5024	2378.91	69.2147
2462.4	86.1101	2462.4	84.306	2462.4	84.55	2462.4	80.9546	2462.4	79.8253	2462.4	84.1321	2462.4	83.5099	2462.4	82.4354	2462.4	83.3534	2462.4	82.2959	2462.4	82.1235	2462.4	83.1138	2462.4	82.4286	2462.4	80.9655	2462.4	80.5809	2462.4	77.9648	2462.4	78.9895	2462.4	75.3457	2462.4	77.511	2462.4	73.4953	2462.4	73.3691	2462.4	71.7605	2462.4	71.8377	2462.4	74.1528	2462.4	73.4073	2462.4	72.5697	2462.4	73.3449	2462.4	68.791	2462.4	69.3424	2462.4	71.2417	2462.4	68.6356	2462.4	63.8167	2462.4	63.6013	2462.4	68.6163	2462.4	65.285	2462.4	69.9034
2548.83	84.7765	2548.83	84.1912	2548.83	83.5003	2548.83	81.6406	2548.83	81.9266	2548.83	82.8463	2548.83	82.9121	2548.83	82.9482	2548.83	82.628	2548.83	83.9084	2548.83	82.7715	2548.83	83.0121	2548.83	82.8739	2548.83	80.317	2548.83	81.2485	2548.83	77.3823	2548.83	78.6647	2548.83	76.3951	2548.83	77.5895	2548.83	74.2439	2548.83	77.2627	2548.83	74.0577	2548.83	73.4497	2548.83	71.8564	2548.83	72.8982	2548.83	73.2049	2548.83	72.26	2548.83	70.2836	2548.83	70.7928	2548.83	69.0688	2548.83	67.6082	2548.83	60.7509	2548.83	63.1133	2548.83	66.0775	2548.83	61.8085	2548.83	67.0567
2639.65	84.2209	2639.65	83.8433	2639.65	83.1615	2639.65	82.1644	2639.65	81.8046	2639.65	82.3612	2639.65	83.1091	2639.65	83.2332	2639.65	82.9089	2639.65	83.2321	2639.65	83.4563	2639.65	83.0193	2639.65	83.0027	2639.65	81.811	2639.65	80.7239	2639.65	78.4047	2639.65	77.2161	2639.65	74.2161	2639.65	74.156	2639.65	73.2812	2639.65	74.7668	2639.65	70.2869	2639.65	74.226	2639.65	74.4801	2639.65	72.8177	2639.65	70.6795	2639.65	71.3645	2639.65	70.0504	2639.65	70.0802	2639.65	68.0136	2639.65	64.3703	2639.65	57.8685	2639.65	60.7258	2639.65	63.1995	2639.65	62.1649	2639.65	63.1341
2731.93	84.8948	2731.93	83.7542	2731.93	83.3781	2731.93	82.1537	2731.93	82.6865	2731.93	82.7756	2731.93	82.0092	2731.93	82.9905	2731.93	82.9234	2731.93	83.8002	2731.93	83.9869	2731.93	83.2632	2731.93	83.3055	2731.93	80.1847	2731.93	80.9034	2731.93	76.295	2731.93	78.5202	2731.93	73.9097	2731.93	76.089	2731.93	73.1658	2731.93	73.2594	2731.93	72.1216	2731.93	72.1277	2731.93	71.4274	2731.93	71.949	2731.93	71.3213	2731.93	69.8884	2731.93	69.8493	2731.93	70.58	2731.93	64.2644	2731.93	59.2681	2731.93	50.5534	2731.93	57.4154	2731.93	66.1366	2731.93	63.3614	2731.93	53.4914
2828.61	84.2082	2828.61	83.8607	2828.61	83.56	2828.61	83.756	2828.61	83.6251	2828.61	82.9292	2828.61	82.8819	2828.61	83.501	2828.61	83.155	2828.61	84.4255	2828.61	83.4997	2828.61	83.471	2828.61	82.4832	2828.61	80.6811	2828.61	79.9597	2828.61	77.3629	2828.61	77.2675	2828.61	74.2402	2828.61	75.8856	2828.61	72.0516	2828.61	75.2424	2828.61	73.4471	2828.61	75.0959	2828.61	72.6402	2828.61	73.7889	2828.61	72.2372	2828.61	67.6887	2828.61	67.5722	2828.61	66.4789	2828.61	64.6207	2828.61	50.471	2828.61	42.4499	2828.61	62.8549	2828.61	66.1462	2828.61	61.7653	2828.61	56.4341
2928.22	84.2222	2928.22	83.2171	2928.22	82.8124	2928.22	84.1713	2928.22	84.0938	2928.22	83.5706	2928.22	83.5579	2928.22	83.4467	2928.22	83.3384	2928.22	83.7261	2928.22	83.4222	2928.22	82.4424	2928.22	82.9601	2928.22	80.4685	2928.22	80.6816	2928.22	77.8137	2928.22	76.8002	2928.22	73.8633	2928.22	75.8694	2928.22	74.3328	2928.22	74.9712	2928.22	69.8927	2928.22	74.3167	2928.22	72.1027	2928.22	73.5269	2928.22	70.282	2928.22	69.917	2928.22	65.6308	2928.22	61.5356	2928.22	64.9053	2928.22	61.2762	2928.22	49.3638	2928.22	59.6148	2928.22	64.215	2928.22	62.098	2928.22	55.2175
3030.76	85.1488	3030.76	83.9404	3030.76	83.4776	3030.76	84.8573	3030.76	84.5743	3030.76	84.1511	3030.76	84.2348	3030.76	83.1225	3030.76	82.9516	3030.76	83.5922	3030.76	82.7604	3030.76	83.8731	3030.76	83.0593	3030.76	81.4759	3030.76	82.1665	3030.76	77.4233	3030.76	78.1363	3030.76	75.0227	3030.76	76.267	3030.76	73.026	3030.76	76.5014	3030.76	73.2484	3030.76	74.9042	3030.76	73.0547	3030.76	72.5581	3030.76	70.4327	3030.76	71.0258	3030.76	67.7045	3030.76	60.5024	3030.76	59.953	3030.76	60.9983	3030.76	61.0462	3030.76	61.0977	3030.76	63.0734	3030.76	58.9255	3030.76	60.3183
3137.7	84.4122	3137.7	83.4393	3137.7	83.5248	3137.7	85.9279	3137.7	85.0888	3137.7	84.4948	3137.7	85.2351	3137.7	82.7111	3137.7	82.7497	3137.7	84.0463	3137.7	82.7644	3137.7	83.6156	3137.7	83.0055	3137.7	80.9911	3137.7	82.3917	3137.7	78.6229	3137.7	80.2942	3137.7	74.4067	3137.7	76.4807	3137.7	74.4288	3137.7	75.0419	3137.7	75.1281	3137.7	73.9185	3137.7	73.0464	3137.7	73.3651	3137.7	71.5187	3137.7	69.5184	3137.7	64.8187	3137.7	60.1223	3137.7	59.1295	3137.7	61.3846	3137.7	63.1837	3137.7	62.189	3137.7	60.7146	3137.7	57.7721	3137.7	62.9552
3249.02	85.3508	3249.02	84.1658	3249.02	84.1385	3249.02	85.9666	3249.02	85.1972	3249.02	84.7174	3249.02	85.212	3249.02	83.0869	3249.02	82.8355	3249.02	83.4953	3249.02	82.7903	3249.02	84.1647	3249.02	83.7542	3249.02	83.0506	3249.02	82.4668	3249.02	79.9044	3249.02	79.6877	3249.02	76.8311	3249.02	78.0337	3249.02	76.8194	3249.02	76.0442	3249.02	71.6132	3249.02	72.4269	3249.02	73.3482	3249.02	71.4858	3249.02	71.6023	3249.02	69.1653	3249.02	64.6321	3249.02	52.4185	3249.02	55.9048	3249.02	50.9295	3249.02	63.5582	3249.02	63.5991	3249.02	59.1218	3249.02	50.9784	3249.02	64.8428
3363.28	85.2957	3363.28	84.7691	3363.28	83.949	3363.28	86.0079	3363.28	86.131	3363.28	85.4935	3363.28	85.0523	3363.28	82.5054	3363.28	83.1904	3363.28	83.8526	3363.28	83.6213	3363.28	85.4596	3363.28	83.601	3363.28	82.8498	3363.28	82.0132	3363.28	79.5567	3363.28	77.8266	3363.28	77.2363	3363.28	73.9458	3363.28	74.8675	3363.28	72.5502	3363.28	75.1299	3363.28	73.1269	3363.28	74.4873	3363.28	72.5889	3363.28	71.5718	3363.28	68.9066	3363.28	62.7256	3363.28	55.5784	3363.28	58.9126	3363.28	54.1963	3363.28	65.6832	3363.28	64.3228	3363.28	58.0538	3363.28	53.331	3363.28	62.8315
3481.93	86.1484	3481.93	84.7236	3481.93	84.6178	3481.93	86.3264	3481.93	86.3785	3481.93	85.6423	3481.93	85.0667	3481.93	83.4312	3481.93	83.8655	3481.93	84.3339	3481.93	83.8533	3481.93	84.9303	3481.93	83.4836	3481.93	82.2913	3481.93	81.6715	3481.93	79.3743	3481.93	77.5397	3481.93	74.5406	3481.93	72.9206	3481.93	73.1766	3481.93	58.8159	3481.93	74.7985	3481.93	67.7207	3481.93	72.6853	3481.93	71.1417	3481.93	70.571	3481.93	67.464	3481.93	62.6219	3481.93	50.9717	3481.93	61.0027	3481.93	58.9268	3481.93	64.4683	3481.93	62.878	3481.93	57.3602	3481.93	55.1419	3481.93	64.2946
3604.98	85.8605	3604.98	85.7248	3604.98	85.4129	3604.98	86.1858	3604.98	86.3931	3604.98	85.8132	3604.98	85.8462	3604.98	84.2049	3604.98	84.3608	3604.98	84.5747	3604.98	83.9965	3604.98	84.1717	3604.98	83.6205	3604.98	82.4157	3604.98	81.5744	3604.98	77.5926	3604.98	76.9644	3604.98	74.5439	3604.98	77.3741	3604.98	75.1704	3604.98	74.7855	3604.98	73.945	3604.98	64.9889	3604.98	72.0277	3604.98	70.9695	3604.98	71.7288	3604.98	68.7436	3604.98	63.2727	3604.98	54.7332	3604.98	61.6601	3604.98	62.0009	3604.98	64.4733	3604.98	63.3696	3604.98	58.7729	3604.98	58.5634	3604.98	62.1482
3732.42	86.8331	3732.42	85.8335	3732.42	85.7882	3732.42	86.7897	3732.42	86.5662	3732.42	86.0255	3732.42	85.6213	3732.42	85.0391	3732.42	85.3624	3732.42	84.0958	3732.42	83.1245	3732.42	83.9567	3732.42	82.8789	3732.42	81.178	3732.42	82.2972	3732.42	79.1492	3732.42	80.1291	3732.42	77.7251	3732.42	80.6332	3732.42	74.4991	3732.42	79.8284	3732.42	72.0498	3732.42	74.3336	3732.42	73.0965	3732.42	69.9859	3732.42	71.3747	3732.42	67.4858	3732.42	62.7818	3732.42	56.686	3732.42	63.4508	3732.42	63.7333	3732.42	64.2962	3732.42	62.7906	3732.42	62.6494	3732.42	60.8695	3732.42	61.5233
3864.26	86.7441	3864.26	86.7792	3864.26	86.5774	3864.26	86.732	3864.26	87.1071	3864.26	86.7189	3864.26	86.8584	3864.26	85.5951	3864.26	84.5823	3864.26	83.2461	3864.26	82.7763	3864.26	82.7907	3864.26	83.2944	3864.26	82.4313	3864.26	82.1004	3864.26	79.5884	3864.26	81.2835	3864.26	77.3097	3864.26	81.9406	3864.26	74.0268	3864.26	80.7183	3864.26	74.7113	3864.26	74.6874	3864.26	71.7287	3864.26	71.3176	3864.26	70.9402	3864.26	68.1028	3864.26	64.1004	3864.26	33.5262	3864.26	64.4294	3864.26	66.146	3864.26	60.8076	3864.26	60.539	3864.26	61.0737	3864.26	60.6431	3864.26	54.8431
4000.49	87.4134	4000.49	87.0916	4000.49	87.0222	4000.49	86.6762	4000.49	85.9403	4000.49	87.6809	4000.49	88.0908	4000.49	85.2478	4000.49	84.1366	4000.49	81.5224	4000.49	81.9846	4000.49	84.8281	4000.49	84.2471	4000.49	84.0136	4000.49	83.1493	4000.49	80.5484	4000.49	80.071	4000.49	76.6348	4000.49	80.2467	4000.49	74.5078	4000.49	75.7143	4000.49	75.2055	4000.49	73.5711	4000.49	72.884	4000.49	68.8302	4000.49	69.4591	4000.49	61.3244	4000.49	65.3624	4000.49	52.3619	4000.49	65.3809	4000.49	66.0286	4000.49	61.6798	4000.49	58.633	4000.49	64.8621	4000.49	64.468	4000.49	50.0803
4141.11	88.1536	4141.11	87.7473	4141.11	87.2649	4141.11	85.6741	4141.11	86.4601	4141.11	88.3897	4141.11	87.8258	4141.11	84.2957	4141.11	84.796	4141.11	82.7742	4141.11	81.4731	4141.11	85.3918	4141.11	85.2914	4141.11	83.1788	4141.11	84.7522	4141.11	80.2477	4141.11	79.9854	4141.11	77.4983	4141.11	80.7162	4141.11	75.8364	4141.11	74.706	4141.11	73.7851	4141.11	69.8508	4141.11	72.5811	4141.11	68.2698	4141.11	68.3672	4141.11	67.7561	4141.11	64.8612	4141.11	59.7497	4141.11	62.7589	4141.11	54.8838	4141.11	56.764	4141.11	60.4413	4141.11	63.0673	4141.11	63.1343	4141.11	53.8224
4287.6	88.9837	4287.6	87.0368	4287.6	87.3273	4287.6	86.6874	4287.6	86.7324	4287.6	88.1797	4287.6	87.9211	4287.6	84.5938	4287.6	84.7851	4287.6	83.6582	4287.6	82.151	4287.6	84.9395	4287.6	84.7023	4287.6	83.3568	4287.6	84.4134	4287.6	79.1577	4287.6	79.4754	4287.6	75.1923	4287.6	76.3984	4287.6	73.2724	4287.6	70.7778	4287.6	75.4814	4287.6	65.1704	4287.6	71.5895	4287.6	65.7362	4287.6	69.3098	4287.6	67.0855	4287.6	65.0467	4287.6	64.0186	4287.6	64.7545	4287.6	62.7912	4287.6	58.2671	4287.6	58.5812	4287.6	64.5515	4287.6	62.1416	4287.6	59.3846
4438.48	89.7888	4438.48	86.7079	4438.48	86.8575	4438.48	87.7402	4438.48	87.15	4438.48	87.2321	4438.48	87.4362	4438.48	85.9195	4438.48	85.1617	4438.48	83.6971	4438.48	82.9961	4438.48	85.0485	4438.48	83.5403	4438.48	82.7494	4438.48	83.1889	4438.48	80.7838	4438.48	79.0262	4438.48	78.3157	4438.48	76.3141	4438.48	75.2279	4438.48	74.3291	4438.48	71.6506	4438.48	71.375	4438.48	72.0061	4438.48	65.6627	4438.48	69.1572	4438.48	53.828	4438.48	64.1617	4438.48	63.6104	4438.48	65.8644	4438.48	59.2747	4438.48	50.2306	4438.48	55.7147	4438.48	63.8402	4438.48	62.7145	4438.48	59.5651
4595.21	89.9731	4595.21	86.6164	4595.21	86.935	4595.21	87.8427	4595.21	87.8654	4595.21	86.8175	4595.21	87.0627	4595.21	86.6933	4595.21	86.0494	4595.21	83.2446	4595.21	82.914	4595.21	84.3001	4595.21	84.0883	4595.21	83.8735	4595.21	82.4523	4595.21	79.5339	4595.21	79.1968	4595.21	76.673	4595.21	73.5732	4595.21	74.2427	4595.21	73.498	4595.21	75.4249	4595.21	72.7721	4595.21	71.0281	4595.21	70.6179	4595.21	68.8706	4595.21	59.7654	4595.21	64.6214	4595.21	53.6192	4595.21	66.8301	4595.21	49.6331	4595.21	56.7837	4595.21	64.9155	4595.21	64.746	4595.21	58.5563	4595.21	61.7458
4756.35	89.9923	4756.35	87.1378	4756.35	87.26	4756.35	88.1976	4756.35	87.5438	4756.35	86.7917	4756.35	87.2522	4756.35	86.763	4756.35	86.6341	4756.35	82.5549	4756.35	82.5037	4756.35	84.8078	4756.35	83.6944	4756.35	83.0384	4756.35	82.8405	4756.35	80.35	4756.35	78.7056	4756.35	76.0632	4756.35	71.9106	4756.35	74.6098	4756.35	73.8504	4756.35	72.0997	4756.35	75.3275	4756.35	70.3811	4756.35	72.7825	4756.35	68.1529	4756.35	66.4945	4756.35	65.3067	4756.35	50.39	4756.35	66.2818	4756.35	59.6005	4756.35	55.4392	4756.35	62.7883	4756.35	64.5451	4756.35	60.7119	4756.35	64.0913
4924.8	89.4445	4924.8	88.2795	4924.8	88.0399	4924.8	87.2045	4924.8	87.7988	4924.8	87.3706	4924.8	86.4511	4924.8	86.4411	4924.8	87.1016	4924.8	83.258	4924.8	82.162	4924.8	84.2967	4924.8	83.0517	4924.8	83.5611	4924.8	83.7831	4924.8	79.7692	4924.8	80.9503	4924.8	76.9315	4924.8	76.4561	4924.8	74.1181	4924.8	70.636	4924.8	74.3323	4924.8	73.1629	4924.8	69.8175	4924.8	73.5879	4924.8	66.7988	4924.8	66.1283	4924.8	65.0435	4924.8	60.3033	4924.8	65.6658	4924.8	60.2734	4924.8	61.0151	4924.8	62.2863	4924.8	65.1855	4924.8	58.8832	4924.8	64.5224
5097.66	88.4372	5097.66	89.171	5097.66	89.2055	5097.66	86.6735	5097.66	87.1593	5097.66	87.3566	5097.66	86.7313	5097.66	86.7693	5097.66	87.1054	5097.66	83.6599	5097.66	82.7561	5097.66	84.2025	5097.66	84.1304	5097.66	84.0957	5097.66	83.6215	5097.66	80.8328	5097.66	81.9756	5097.66	77.5243	5097.66	76.4545	5097.66	74.4628	5097.66	67.8302	5097.66	72.7983	5097.66	71.3524	5097.66	71.2721	5097.66	69.4766	5097.66	66.3984	5097.66	63.5952	5097.66	67.8361	5097.66	60.6638	5097.66	65.6565	5097.66	61.2359	5097.66	64.0768	5097.66	63.23	5097.66	65.584	5097.66	56.7809	5097.66	65.3768
5277.83	87.5506	5277.83	89.3538	5277.83	89.4539	5277.83	87.0714	5277.83	86.6575	5277.83	86.727	5277.83	86.9124	5277.83	87.2415	5277.83	87.1268	5277.83	83.3614	5277.83	82.7834	5277.83	83.9469	5277.83	83.257	5277.83	84.3941	5277.83	84.0324	5277.83	81.0537	5277.83	81.9462	5277.83	77.3987	5277.83	75.5944	5277.83	73.8797	5277.83	70.9487	5277.83	72.196	5277.83	66.2617	5277.83	71.8161	5277.83	61.1233	5277.83	65.913	5277.83	57.971	5277.83	67.7809	5277.83	64.6481	5277.83	64.7765	5277.83	56.5843	5277.83	65.6859	5277.83	65.2254	5277.83	64.2544	5277.83	60.0429	5277.83	64.8069
5463.87	87.9731	5463.87	89.2951	5463.87	89.4105	5463.87	86.921	5463.87	86.5274	5463.87	86.9034	5463.87	86.696	5463.87	87.0823	5463.87	87.336	5463.87	83.9512	5463.87	83.4024	5463.87	84.4662	5463.87	83.7217	5463.87	82.6222	5463.87	82.3791	5463.87	78.9846	5463.87	80.0825	5463.87	75.8313	5463.87	74.9741	5463.87	71.7096	5463.87	73.6437	5463.87	70.2074	5463.87	69.4254	5463.87	68.9693	5463.87	64.7433	5463.87	62.6822	5463.87	63.0056	5463.87	67.1462	5463.87	67.1806	5463.87	63.4723	5463.87	61.0341	5463.87	65.998	5463.87	62.8528	5463.87	64.6613	5463.87	62.0126	5463.87	66.1137
5657.23	88.7143	5657.23	88.7506	5657.23	88.5511	5657.23	87.1687	5657.23	87.4398	5657.23	86.8991	5657.23	86.7089	5657.23	86.9777	5657.23	86.6118	5657.23	84.8888	5657.23	84.996	5657.23	83.4604	5657.23	82.5335	5657.23	82.3838	5657.23	82.5283	5657.23	78.8683	5657.23	79.0102	5657.23	76.424	5657.23	75.4864	5657.23	72.7508	5657.23	69.0825	5657.23	70.6057	5657.23	66.3396	5657.23	69.5937	5657.23	48.4471	5657.23	63.7835	5657.23	63.9854	5657.23	66.6739	5657.23	64.3232	5657.23	62.9459	5657.23	61.0027	5657.23	66.9628	5657.23	63.9807	5657.23	63.3824	5657.23	58.2465	5657.23	65.6413
5856.45	89.086	5856.45	88.3973	5856.45	88.6442	5856.45	87.9636	5856.45	87.6445	5856.45	86.4575	5856.45	86.5292	5856.45	87.1477	5856.45	86.6432	5856.45	85.0287	5856.45	84.9582	5856.45	82.8226	5856.45	82.3434	5856.45	82.4314	5856.45	81.3046	5856.45	79.794	5856.45	79.6194	5856.45	76.6564	5856.45	73.1161	5856.45	73.1179	5856.45	66.7636	5856.45	69.26	5856.45	65.4143	5856.45	68.693	5856.45	59.6722	5856.45	61.8451	5856.45	63.0076	5856.45	65.2085	5856.45	65.4512	5856.45	64.3587	5856.45	61.5723	5856.45	66.0366	5856.45	64.0117	5856.45	63.4383	5856.45	63.8466	5856.45	66.1212
6062.99	89.3041	6062.99	88.2687	6062.99	88.2183	6062.99	88.3757	6062.99	88.2146	6062.99	86.1877	6062.99	86.2175	6062.99	87.132	6062.99	86.4892	6062.99	84.9982	6062.99	85.4927	6062.99	82.667	6062.99	80.7031	6062.99	82.1299	6062.99	81.6674	6062.99	78.4588	6062.99	78.8638	6062.99	75.7071	6062.99	71.5651	6062.99	71.4383	6062.99	67.8554	6062.99	69.4562	6062.99	57.9363	6062.99	68.7968	6062.99	52.5246	6062.99	61.2182	6062.99	63.7458	6062.99	65.7041	6062.99	66.2608	6062.99	63.4862	6062.99	60.0967	6062.99	66.6899	6062.99	63.3257	6062.99	61.0519	6062.99	62.4392	6062.99	65.8544
6276.86	89.173	6276.86	88.2278	6276.86	88.1079	6276.86	88.5469	6276.86	88.3442	6276.86	86.2191	6276.86	86.0059	6276.86	87.2376	6276.86	87.0224	6276.86	85.0152	6276.86	84.8972	6276.86	82.0939	6276.86	80.9618	6276.86	80.9173	6276.86	79.84	6276.86	78.5845	6276.86	77.3254	6276.86	75.2772	6276.86	70.6233	6276.86	70.9646	6276.86	72.5439	6276.86	69.4173	6276.86	65.0229	6276.86	67.0508	6276.86	56.2272	6276.86	58.4076	6276.86	66.2987	6276.86	65.0996	6276.86	64.6055	6276.86	62.4837	6276.86	61.3605	6276.86	66.4132	6276.86	64.2794	6276.86	60.725	6276.86	63.7524	6276.86	66.3515
6498.05	89.2791	6498.05	88.5639	6498.05	88.4333	6498.05	88.14	6498.05	88.0437	6498.05	87.0595	6498.05	86.7899	6498.05	86.5313	6498.05	86.3793	6498.05	84.9444	6498.05	84.6234	6498.05	81.1785	6498.05	80.7478	6498.05	80.9155	6498.05	81.8179	6498.05	79.6682	6498.05	79.53	6498.05	76.4332	6498.05	72.4088	6498.05	71.5898	6498.05	69.4454	6498.05	70.3485	6498.05	67.0563	6498.05	66.5021	6498.05	46.8963	6498.05	57.5894	6498.05	60.8192	6498.05	65.141	6498.05	60.4701	6498.05	61.9494	6498.05	58.0015	6498.05	65.2434	6498.05	64.0338	6498.05	62.4541	6498.05	65.3578	6498.05	65.4856
6726.56	89.3429	6726.56	88.7638	6726.56	88.5317	6726.56	87.9257	6726.56	87.913	6726.56	87.5825	6726.56	87.2675	6726.56	85.5503	6726.56	85.769	6726.56	84.8054	6726.56	84.363	6726.56	81.1656	6726.56	79.893	6726.56	82.6924	6726.56	83.1537	6726.56	79.8832	6726.56	81.6073	6726.56	75.3881	6726.56	74.9973	6726.56	72.8557	6726.56	65.1848	6726.56	71.3162	6726.56	68.4534	6726.56	65.0949	6726.56	64.8768	6726.56	58.7997	6726.56	59.0497	6726.56	63.7382	6726.56	64.7121	6726.56	61.8763	6726.56	62.9035	6726.56	65.0126	6726.56	64.4321	6726.56	63.1413	6726.56	63.165	6726.56	61.461
6963.87	89.4073	6963.87	88.7978	6963.87	88.4445	6963.87	88.4711	6963.87	88.4968	6963.87	87.3375	6963.87	87.212	6963.87	84.9547	6963.87	84.7563	6963.87	84.6004	6963.87	84.1084	6963.87	81.6445	6963.87	80.8921	6963.87	81.8177	6963.87	82.4968	6963.87	78.9906	6963.87	80.528	6963.87	74.6965	6963.87	74.2311	6963.87	68.7074	6963.87	64.2874	6963.87	70.3191	6963.87	67.0474	6963.87	64.3989	6963.87	63.772	6963.87	58.8725	6963.87	61.7685	6963.87	66.1169	6963.87	60.2546	6963.87	57.8102	6963.87	60.9713	6963.87	65.8433	6963.87	66.6898	6963.87	65.0876	6963.87	66.3702	6963.87	62.6269
7209.96	89.0415	7209.96	88.9777	7209.96	88.9021	7209.96	89.058	7209.96	88.7541	7209.96	86.607	7209.96	86.6364	7209.96	84.7863	7209.96	84.2438	7209.96	84.7882	7209.96	84.2131	7209.96	80.8995	7209.96	80.0136	7209.96	80.1953	7209.96	80.0487	7209.96	77.9441	7209.96	78.0844	7209.96	74.1968	7209.96	73.814	7209.96	70.4024	7209.96	68.2993	7209.96	68.8873	7209.96	60.7761	7209.96	62.4247	7209.96	60.9955	7209.96	54.2749	7209.96	66.2918	7209.96	64.9879	7209.96	63.8881	7209.96	58.1349	7209.96	59.1652	7209.96	64.0401	7209.96	62.9743	7209.96	64.6875	7209.96	63.4592	7209.96	62.0513
7464.84	88.8306	7464.84	89.1286	7464.84	89.1212	7464.84	89.1005	7464.84	88.9896	7464.84	86.1479	7464.84	85.7196	7464.84	84.6284	7464.84	83.9537	7464.84	84.9547	7464.84	84.532	7464.84	80.1131	7464.84	78.1667	7464.84	79.6684	7464.84	79.389	7464.84	77.4127	7464.84	76.2274	7464.84	72.7514	7464.84	68.292	7464.84	69.9601	7464.84	69.171	7464.84	69.3865	7464.84	49.8143	7464.84	57.9299	7464.84	62.1226	7464.84	57.9208	7464.84	64.9863	7464.84	65.4542	7464.84	62.2433	7464.84	59.4607	7464.84	62.0699	7464.84	65.6113	7464.84	64.7453	7464.84	61.9199	7464.84	62.5461	7464.84	61.3912
7727.05	88.8818	7727.05	89.6164	7727.05	89.4907	7727.05	88.6582	7727.05	88.5404	7727.05	86.7187	7727.05	86.2852	7727.05	84.4065	7727.05	83.3809	7727.05	84.6769	7727.05	84.2446	7727.05	79.8801	7727.05	78.4785	7727.05	79.3178	7727.05	78.8298	7727.05	77.2403	7727.05	75.6725	7727.05	72.4195	7727.05	64.0686	7727.05	70.138	7727.05	67.4606	7727.05	67.6799	7727.05	54.5659	7727.05	51.3025	7727.05	56.8064	7727.05	58.3332	7727.05	61.8493	7727.05	65.3672	7727.05	62.7546	7727.05	60.1272	7727.05	62.9105	7727.05	64.8804	7727.05	61.8394	7727.05	61.1089	7727.05	61.6287	7727.05	56.395
7999.51	88.8372	7999.51	89.595	7999.51	89.6026	7999.51	88.1945	7999.51	87.8992	7999.51	87.5247	7999.51	86.8253	7999.51	84.1282	7999.51	83.4437	7999.51	84.5455	7999.51	83.638	7999.51	79.2758	7999.51	78.7443	7999.51	78.4532	7999.51	76.7836	7999.51	76.4552	7999.51	73.2779	7999.51	70.0197	7999.51	67.5527	7999.51	69.0164	7999.51	66.805	7999.51	67.697	7999.51	60.7573	7999.51	57.6875	7999.51	51.925	7999.51	58.6657	7999.51	61.849	7999.51	64.6895	7999.51	60.7087	7999.51	58.8358	7999.51	62.5606	7999.51	64.5087	7999.51	61.322	7999.51	58.9577	7999.51	62.972	7999.51	52.8963
8282.23	88.8349	8282.23	88.9237	8282.23	89.1099	8282.23	88.2123	8282.23	87.6694	8282.23	87.6253	8282.23	86.6829	8282.23	84.6302	8282.23	83.6473	8282.23	84.4071	8282.23	83.0658	8282.23	79.0741	8282.23	77.7367	8282.23	77.996	8282.23	77.4624	8282.23	76.4839	8282.23	74.4351	8282.23	70.3834	8282.23	70.5872	8282.23	69.7118	8282.23	63.4839	8282.23	67.1343	8282.23	64.0107	8282.23	57.5565	8282.23	57.7132	8282.23	54.3999	8282.23	63.7613	8282.23	64.8717	8282.23	62.4727	8282.23	57.1773	8282.23	63.3902	8282.23	62.0264	8282.23	61.7407	8282.23	59.5408	8282.23	62.0138	8282.23	57.9639
8573.73	88.8242	8573.73	88.6863	8573.73	88.6894	8573.73	88.5033	8573.73	87.5898	8573.73	87.6664	8573.73	86.1658	8573.73	85.1204	8573.73	84.1604	8573.73	84.6672	8573.73	81.945	8573.73	79.4081	8573.73	77.4369	8573.73	78.2231	8573.73	77.8361	8573.73	76.4606	8573.73	76.2215	8573.73	71.26	8573.73	71.8511	8573.73	69.9183	8573.73	65.6313	8573.73	67.7646	8573.73	56.7972	8573.73	58.0283	8573.73	57.8601	8573.73	55.2956	8573.73	62.2554	8573.73	63.842	8573.73	63.3758	8573.73	55.8301	8573.73	61.6577	8573.73	61.8882	8573.73	60.0479	8573.73	57.2053	8573.73	57.6219	8573.73	58.1884
8876.95	88.8973	8876.95	88.8419	8876.95	88.7129	8876.95	88.6225	8876.95	87.4708	8876.95	87.5176	8876.95	86.1245	8876.95	85.444	8876.95	83.9622	8876.95	84.6196	8876.95	81.8511	8876.95	80.1104	8876.95	76.9749	8876.95	78.0702	8876.95	76.9299	8876.95	75.0954	8876.95	72.2241	8876.95	70.7122	8876.95	67.9728	8876.95	68.3789	8876.95	68.3972	8876.95	65.6531	8876.95	62.7504	8876.95	58.3929	8876.95	60.7646	8876.95	53.1357	8876.95	60.2388	8876.95	61.7207	8876.95	57.9942	8876.95	57.4774	8876.95	59.0347	8876.95	59.6978	8876.95	59.5077	8876.95	55.7977	8876.95	57.4878	8876.95	57.855
9188.96	89.2607	9188.96	89.0775	9188.96	88.7186	9188.96	88.8525	9188.96	88.0486	9188.96	87.2125	9188.96	86.1306	9188.96	85.7577	9188.96	84.1112	9188.96	84.311	9188.96	81.8502	9188.96	80.3358	9188.96	77.7438	9188.96	76.8647	9188.96	75.4617	9188.96	73.2766	9188.96	70.7869	9188.96	69.5031	9188.96	66.4438	9188.96	65.9441	9188.96	66.4046	9188.96	62.8853	9188.96	65.6541	9188.96	58.3988	9188.96	57.8007	9188.96	51.3725	9188.96	60.0076	9188.96	60.5639	9188.96	57.0133	9188.96	54.6198	9188.96	57.4554	9188.96	56.4247	9188.96	53.7461	9188.96	58.7565	9188.96	55.8636	9188.96	55.0837
9514.16	89.834	9514.16	89.3229	9514.16	89.1215	9514.16	89.2321	9514.16	88.6542	9514.16	86.9366	9514.16	86.3991	9514.16	85.6793	9514.16	84.9218	9514.16	83.3303	9514.16	81.4902	9514.16	79.0933	9514.16	76.7039	9514.16	74.0069	9514.16	73.7493	9514.16	72.1893	9514.16	72.4022	9514.16	68.3563	9514.16	68.9402	9514.16	64.4281	9514.16	59.4128	9514.16	61.6408	9514.16	64.3631	9514.16	58.4438	9514.16	56.5787	9514.16	52.2993	9514.16	53.1798	9514.16	59.4277	9514.16	59.2555	9514.16	53.7599	9514.16	56.2555	9514.16	54.4805	9514.16	53.9302	9514.16	52.1228	9514.16	48.6968	9514.16	49.5896
9849.61	90.4215	9849.61	89.6622	9849.61	89.6828	9849.61	88.9248	9849.61	88.8803	9849.61	87.4907	9849.61	87.0949	9849.61	84.705	9849.61	84.6523	9849.61	81.7608	9849.61	81.1884	9849.61	78.5093	9849.61	78.0506	9849.61	73.3682	9849.61	73.6782	9849.61	70.4518	9849.61	69.8191	9849.61	65.3863	9849.61	68.847	9849.61	61.6552	9849.61	43.2694	9849.61	56.3564	9849.61	61.8242	9849.61	54.0286	9849.61	50.0626	9849.61	53.4306	9849.61	59.5524	9849.61	56.1898	9849.61	57.2143	9849.61	52.9785	9849.61	55.2313	9849.61	49.3321	9849.61	50.9977	9849.61	48.9993	9849.61	47.9347	9849.61	53.7239
10196.8	90.8639	10196.8	90.2536	10196.8	90.2057	10196.8	88.8704	10196.8	89.3587	10196.8	87.6542	10196.8	87.3776	10196.8	84.134	10196.8	84.5016	10196.8	80.8001	10196.8	81.0558	10196.8	78.2189	10196.8	78.893	10196.8	71.892	10196.8	72.9028	10196.8	69.005	10196.8	69.7578	10196.8	61.7891	10196.8	66.8063	10196.8	59.3561	10196.8	52.4978	10196.8	46.1378	10196.8	53.056	10196.8	51.1512	10196.8	46.1717	10196.8	53.057	10196.8	58.5573	10196.8	51.6603	10196.8	55.2281	10196.8	53.908	10196.8	55.1727	10196.8	49.7935	10196.8	44.3204	10196.8	50.844	10196.8	47.9937	10196.8	51.4725
10555.7	91.5019	10555.7	90.6497	10555.7	90.6258	10555.7	89.2062	10555.7	89.7219	10555.7	87.2637	10555.7	87.2647	10555.7	84.1104	10555.7	84.4785	10555.7	80.1656	10555.7	80.7292	10555.7	75.9788	10555.7	77.5736	10555.7	71.1255	10555.7	72.3011	10555.7	68.2836	10555.7	70.4395	10555.7	60.1709	10555.7	64.2065	10555.7	56.1528	10555.7	53.9916	10555.7	44.7019	10555.7	49.9722	10555.7	44.9375	10555.7	41.1308	10555.7	50.8377	10555.7	54.2794	10555.7	46.221	10555.7	55.0979	10555.7	53.5579	10555.7	54.643	10555.7	45.9855	10555.7	46.016	10555.7	51.785	10555.7	50.4509	10555.7	50.0665
10927.7	91.5507	10927.7	90.6023	10927.7	90.5248	10927.7	89.6072	10927.7	90.0725	10927.7	86.8875	10927.7	86.9357	10927.7	83.6771	10927.7	84.2593	10927.7	79.6746	10927.7	80.8292	10927.7	74.8305	10927.7	76.7746	10927.7	68.4556	10927.7	70.4916	10927.7	69.49	10927.7	72.0931	10927.7	63.7477	10927.7	61.3053	10927.7	59.5996	10927.7	60.3066	10927.7	51.8592	10927.7	49.4375	10927.7	54.7421	10927.7	51.3863	10927.7	52.6378	10927.7	52.5109	10927.7	47.8412	10927.7	50.8896	10927.7	55.502	10927.7	54.4934	10927.7	41.1018	10927.7	47.9373	10927.7	52.9716	10927.7	23.9978	10927.7	54.1171
11313	91.7706	11313	90.7171	11313	90.8688	11313	89.6318	11313	89.9918	11313	86.897	11313	86.9208	11313	84.3834	11313	84.7316	11313	79.3087	11313	79.5581	11313	76.0011	11313	75.8336	11313	70.6147	11313	70.698	11313	71.2624	11313	69.7839	11313	65.8518	11313	65.0993	11313	59.0147	11313	63.6067	11313	54.1524	11313	52.883	11313	58.1682	11313	51.5012	11313	48.8779	11313	53.2038	11313	54.4902	11313	51.2888	11313	56.1206	11313	45.1273	11313	41.6929	11313	53.7444	11313	51.9716	11313	47.3547	11313	46.7836
11712.9	91.8708	11712.9	90.9323	11712.9	91.0635	11712.9	89.5143	11712.9	89.7289	11712.9	86.6817	11712.9	86.9818	11712.9	84.6271	11712.9	84.391	11712.9	79.9069	11712.9	79.4079	11712.9	77.9225	11712.9	76.2153	11712.9	70.9154	11712.9	72.1992	11712.9	71.62	11712.9	69.0663	11712.9	64.3969	11712.9	65.3579	11712.9	57.6892	11712.9	61.8986	11712.9	56.8102	11712.9	58.5235	11712.9	56.1681	11712.9	48.8224	11712.9	54.8667	11712.9	59.708	11712.9	55.0965	11712.9	54.6749	11712.9	48.2777	11712.9	47.28	11712.9	27.8941	11712.9	44.3311	11712.9	51.3948	11712.9	53.6221	11712.9	47.3529
12126	91.7172	12126	91.1969	12126	91.2875	12126	89.1855	12126	89.4963	12126	86.4056	12126	87.1006	12126	83.9673	12126	83.2973	12126	79.7992	12126	79.9402	12126	77.7543	12126	77.7786	12126	69.5073	12126	73.0626	12126	71.3654	12126	69.8426	12126	65.9923	12126	67.1764	12126	60.533	12126	58.6078	12126	58.1514	12126	56.709	12126	55.7102	12126	42.0094	12126	54.6457	12126	55.8567	12126	57.3888	12126	53.8959	12126	49.8969	12126	44.0592	12126	51.5057	12126	42.0858	12126	50.2018	12126	49.1417	12126	46.7339
12553.7	91.6216	12553.7	91.2235	12553.7	91.3923	12553.7	88.9558	12553.7	89.3268	12553.7	86.0252	12553.7	86.9475	12553.7	82.8192	12553.7	83.0532	12553.7	80.9	12553.7	80.2312	12553.7	77.1428	12553.7	77.6441	12553.7	69.4104	12553.7	73.3146	12553.7	70.9432	12553.7	68.2308	12553.7	65.7679	12553.7	67.6965	12553.7	59.8047	12553.7	52.7021	12553.7	59.1765	12553.7	56.6841	12553.7	57.1594	12553.7	44.8715	12553.7	55.5449	12553.7	52.0939	12553.7	56.9805	12553.7	54.2871	12553.7	45.2694	12553.7	42.9997	12553.7	54.7405	12553.7	48.2615	12553.7	48.1733	12553.7	49.4868	12553.7	47.9968
12996.1	91.3752	12996.1	91.1977	12996.1	91.4016	12996.1	88.6768	12996.1	89.2441	12996.1	86.1162	12996.1	86.7932	12996.1	82.6444	12996.1	83.278	12996.1	81.9417	12996.1	80.522	12996.1	75.7709	12996.1	75.9111	12996.1	66.1334	12996.1	71.3687	12996.1	70.5885	12996.1	69.7944	12996.1	64.4807	12996.1	64.1814	12996.1	57.2054	12996.1	37.9315	12996.1	60.4059	12996.1	55.5404	12996.1	58.3845	12996.1	50.591	12996.1	55.2878	12996.1	54.827	12996.1	56.9175	12996.1	52.8735	12996.1	44.068	12996.1	47.3312	12996.1	52.9061	12996.1	49.4058	12996.1	44.3595	12996.1	49.0865	12996.1	49.6321
13454.6	90.7707	13454.6	90.7295	13454.6	90.9146	13454.6	88.2151	13454.6	88.8301	13454.6	86.2601	13454.6	86.3661	13454.6	82.448	13454.6	82.8514	13454.6	81.2139	13454.6	79.2448	13454.6	75.0365	13454.6	76.3234	13454.6	67.3993	13454.6	69.7777	13454.6	68.7419	13454.6	69.6882	13454.6	64.0953	13454.6	58.406	13454.6	57.4062	13454.6	60.0119	13454.6	60.8461	13454.6	57.2917	13454.6	58.2548	13454.6	36.8714	13454.6	55.426	13454.6	47.612	13454.6	53.7272	13454.6	55.813	13454.6	44.4045	13454.6	49.9641	13454.6	52.1328	13454.6	49.5597	13454.6	49.1319	13454.6	52.2793	13454.6	48.5983
13929.2	90.8259	13929.2	90.1606	13929.2	90.5785	13929.2	88.0234	13929.2	88.5603	13929.2	85.8727	13929.2	86.0804	13929.2	81.9667	13929.2	81.9083	13929.2	79.3868	13929.2	78.3819	13929.2	75.3195	13929.2	73.5323	13929.2	67.7904	13929.2	68.1528	13929.2	69.093	13929.2	67.5918	13929.2	61.0766	13929.2	63.0474	13929.2	56.1578	13929.2	65.4674	13929.2	60.2963	13929.2	55.2933	13929.2	56.9779	13929.2	47.6133	13929.2	54.7642	13929.2	57.6126	13929.2	52.1198	13929.2	49.6379	13929.2	45.5009	13929.2	50.808	13929.2	52.6728	13929.2	45.2272	13929.2	47.4064	13929.2	54.7401	13929.2	27.944
14419.9	90.925	14419.9	90.1176	14419.9	90.4594	14419.9	87.7827	14419.9	88.2124	14419.9	85.278	14419.9	85.3049	14419.9	81.4042	14419.9	81.1276	14419.9	77.1881	14419.9	76.7697	14419.9	77.0647	14419.9	72.5998	14419.9	68.4442	14419.9	68.5324	14419.9	68.0318	14419.9	66.4406	14419.9	61.1387	14419.9	59.7234	14419.9	55.1099	14419.9	65.6674	14419.9	58.6874	14419.9	57.7127	14419.9	54.3461	14419.9	46.6585	14419.9	48.8263	14419.9	56.5272	14419.9	55.876	14419.9	51.1654	14419.9	48.6309	14419.9	49.221	14419.9	51.974	14419.9	43.4069	14419.9	48.877	14419.9	52.8031	14419.9	38.3158
14928.2	90.8753	14928.2	89.8296	14928.2	89.9826	14928.2	87.6519	14928.2	87.8705	14928.2	84.7425	14928.2	84.2771	14928.2	80.8533	14928.2	79.6708	14928.2	77.262	14928.2	74.9523	14928.2	77.6047	14928.2	72.2156	14928.2	67.2185	14928.2	69.8804	14928.2	67.9965	14928.2	66.5239	14928.2	59.0951	14928.2	58.3894	14928.2	54.7722	14928.2	59.9735	14928.2	56.6173	14928.2	56.9836	14928.2	47.7445	14928.2	46.2155	14928.2	45.8335	14928.2	48.2958	14928.2	55.4153	14928.2	39.105	14928.2	50.8414	14928.2	50.3404	14928.2	47.2302	14928.2	40.4764	14928.2	50.8998	14928.2	49.4901	14928.2	48.0664
15455.6	90.5108	15455.6	89.456	15455.6	89.5438	15455.6	87.3057	15455.6	87.1425	15455.6	83.9985	15455.6	83.3655	15455.6	80.0591	15455.6	77.9358	15455.6	77.5029	15455.6	74.0393	15455.6	76.7877	15455.6	70.0949	15455.6	65.4215	15455.6	67.3535	15455.6	65.4379	15455.6	64.4637	15455.6	56.8481	15455.6	58.7029	15455.6	52.5499	15455.6	53.4133	15455.6	53.4097	15455.6	49.3165	15455.6	38.3909	15455.6	50.0812	15455.6	34.3014	15455.6	48.9572	15455.6	51.8473	15455.6	45.6778	15455.6	53.6607	15455.6	46.0244	15455.6	42.633	15455.6	46.9113	15455.6	53.5407	15455.6	46.4154	15455.6	50.9933
16000.5	89.9209	16000.5	88.8846	16000.5	88.7525	16000.5	86.576	16000.5	85.5568	16000.5	83.413	16000.5	81.5103	16000.5	79.9099	16000.5	76.4718	16000.5	77.8718	16000.5	75.2671	16000.5	75.472	16000.5	71.7175	16000.5	64.4426	16000.5	68.401	16000.5	63.242	16000.5	64.3017	16000.5	53.8386	16000.5	57.6311	16000.5	48.9901	16000.5	59.6651	16000.5	54.457	16000.5	39.7505	16000.5	39.3454	16000.5	44.3613	16000.5	43.5746	16000.5	50.9548	16000.5	46.7654	16000.5	46.4829	16000.5	48.0549	16000.5	51.3109	16000.5	54.0131	16000.5	48.5077	16000.5	51.0351	16000.5	48.7841	16000.5	52.979
16564.5	88.3827	16564.5	87.4806	16564.5	87.1329	16564.5	85.8623	16564.5	84.1902	16564.5	83.0825	16564.5	79.9206	16564.5	80.0297	16564.5	75.3659	16564.5	75.947	16564.5	72.8889	16564.5	73.4733	16564.5	71.0226	16564.5	64.0677	16564.5	67.7844	16564.5	61.1791	16564.5	62.6503	16564.5	52.2957	16564.5	56.1637	16564.5	48.5547	16564.5	55.8998	16564.5	54.2603	16564.5	48.7256	16564.5	42.0086	16564.5	46.0298	16564.5	28.1367	16564.5	51.8888	16564.5	41.5177	16564.5	48.4252	16564.5	52.0726	16564.5	46.0363	16564.5	40.7475	16564.5	37.5612	16564.5	55.0448	16564.5	48.5748	16564.5	50.5354
17148.9	87.8059	17148.9	87.1185	17148.9	86.5421	17148.9	85.6739	17148.9	83.0452	17148.9	82.8242	17148.9	78.4982	17148.9	80.0928	17148.9	74.6661	17148.9	75.9063	17148.9	66.3995	17148.9	71.8482	17148.9	68.4078	17148.9	63.3872	17148.9	63.9839	17148.9	58.8275	17148.9	60.1593	17148.9	53.3848	17148.9	52.5226	17148.9	47.3796	17148.9	58.9715	17148.9	52.7656	17148.9	51.3102	17148.9	39.4162	17148.9	47.0007	17148.9	34.6027	17148.9	51.9006	17148.9	39.017	17148.9	46.8947	17148.9	49.1672	17148.9	38.2382	17148.9	45.6638	17148.9	48.9185	17148.9	54.7193	17148.9	48.0537	17148.9	54.9498
17752.4	87.8898	17752.4	87.8481	17752.4	86.9183	17752.4	86.5811	17752.4	83.2137	17752.4	83.2612	17752.4	78.9283	17752.4	79.204	17752.4	73.704	17752.4	74.0657	17752.4	68.7372	17752.4	65.5784	17752.4	64.2688	17752.4	65.5197	17752.4	50.7966	17752.4	60.1371	17752.4	53.5883	17752.4	52.6015	17752.4	46.5785	17752.4	47.5574	17752.4	59.4638	17752.4	48.2581	17752.4	49.9133	17752.4	38.3317	17752.4	44.1111	17752.4	42.349	17752.4	47.3151	17752.4	43.4043	17752.4	48.8026	17752.4	46.6529	17752.4	38.8338	17752.4	42.7164	17752.4	46.9126	17752.4	55.2483	17752.4	44.8446	17752.4	51.2553
18379.4	87.3245	18379.4	87.9174	18379.4	86.7058	18379.4	86.7599	18379.4	82.58	18379.4	83.1204	18379.4	78.6612	18379.4	79.46	18379.4	75.4406	18379.4	68.6657	18379.4	69.1752	18379.4	66.7623	18379.4	59.9277	18379.4	65.4164	18379.4	55.0205	18379.4	58.7011	18379.4	49.8105	18379.4	51.6373	18379.4	48.6913	18379.4	44.4214	18379.4	56.9363	18379.4	41.3387	18379.4	47.3653	18379.4	42.2417	18379.4	43.5413	18379.4	42.3627	18379.4	38.3275	18379.4	44.8052	18379.4	48.1695	18379.4	49.3395	18379.4	45.342	18379.4	49.646	18379.4	42.3121	18379.4	43.6762	18379.4	42.5598	18379.4	47.6021
19026.9	87.5836	19026.9	87.7361	19026.9	85.8999	19026.9	86.4056	19026.9	81.8195	19026.9	82.9758	19026.9	76.6604	19026.9	75.4922	19026.9	73.7623	19026.9	64.0922	19026.9	65.9831	19026.9	64.1861	19026.9	65.5915	19026.9	60.4697	19026.9	61.3967	19026.9	51.809	19026.9	41.9755	19026.9	53.8414	19026.9	54.1904	19026.9	35.4784	19026.9	55.7976	19026.9	41.7996	19026.9	45.3144	19026.9	48.3681	19026.9	36.4501	19026.9	46.9024	19026.9	37.0509	19026.9	41.6763	19026.9	38.3458	19026.9	52.0572	19026.9	44.1069	19026.9	48.4322	19026.9	45.4328	19026.9	47.5845	19026.9	43.0583	19026.9	39.6219
19697.8	87.4732	19697.8	87.6091	19697.8	85.4146	19697.8	85.5774	19697.8	80.7766	19697.8	81.1067	19697.8	75.1674	19697.8	72.5593	19697.8	71.3273	19697.8	65.263	19697.8	65.5397	19697.8	67.1632	19697.8	62.9971	19697.8	59.0016	19697.8	60.2657	19697.8	57.4104	19697.8	48.4932	19697.8	56.5915	19697.8	50.6794	19697.8	45.5093	19697.8	45.2035	19697.8	44.5386	19697.8	49.3071	19697.8	47.8741	19697.8	26.6615	19697.8	42.5762	19697.8	43.008	19697.8	38.6014	19697.8	39.431	19697.8	44.3967	19697.8	46.0741	19697.8	45.8844	19697.8	44.0503	19697.8	47.7114	19697.8	43.4763	19697.8	39.7088
19999.5	86.9934	19999.5	87.3355	19999.5	85.2659	19999.5	84.7512	19999.5	80.276	19999.5	80.3166	19999.5	75.693	19999.5	71.4877	19999.5	72.6426	19999.5	65.5352	19999.5	68.1357	19999.5	67.8419	19999.5	62.1033	19999.5	60.6334	19999.5	60.9143	19999.5	58.9884	19999.5	53.9765	19999.5	51.7492	19999.5	35.1212	19999.5	51.8377	19999.5	46.8997	19999.5	46.9565	19999.5	49.5627	19999.5	52.1256	19999.5	38.6441	19999.5	45.2509	19999.5	49.0835	19999.5	44.8036	19999.5	46.3565	19999.5	54.3804	19999.5	52.0187	19999.5	52.3309	19999.5	46.3733	19999.5	42.2094	19999.5	46.1069	19999.5	48.3382
