"SPL Horizontal"																																																																							
"On-Axis"		"10°"		"-10°"		"20°"		"-20°"		"30°"		"-30°"		"40°"		"-40°"		"50°"		"-50°"		"60°"		"-60°"		"70°"		"-70°"		"80°"		"-80°"		"90°"		"-90°"		"100°"		"-100°"		"110°"		"-110°"		"120°"		"-120°"		"130°"		"-130°"		"140°"		"-140°"		"150°"		"-150°"		"160°"		"-160°"		"170°"		"-170°"		"180°"	
"Frequency [Hz]"	"Sound Pessure Level [dB]  / [2.83V 1m] "	"Frequency [Hz]"	"Sound Pessure Level [dB]  / [2.83V 1m] "	"Frequency [Hz]"	"Sound Pessure Level [dB]  / [2.83V 1m] "	"Frequency [Hz]"	"Sound Pessure Level [dB]  / [2.83V 1m] "	"Frequency [Hz]"	"Sound Pessure Level [dB]  / [2.83V 1m] "	"Frequency [Hz]"	"Sound Pessure Level [dB]  / [2.83V 1m] "	"Frequency [Hz]"	"Sound Pessure Level [dB]  / [2.83V 1m] "	"Frequency [Hz]"	"Sound Pessure Level [dB]  / [2.83V 1m] "	"Frequency [Hz]"	"Sound Pessure Level [dB]  / [2.83V 1m] "	"Frequency [Hz]"	"Sound Pessure Level [dB]  / [2.83V 1m] "	"Frequency [Hz]"	"Sound Pessure Level [dB]  / [2.83V 1m] "	"Frequency [Hz]"	"Sound Pessure Level [dB]  / [2.83V 1m] "	"Frequency [Hz]"	"Sound Pessure Level [dB]  / [2.83V 1m] "	"Frequency [Hz]"	"Sound Pessure Level [dB]  / [2.83V 1m] "	"Frequency [Hz]"	"Sound Pessure Level [dB]  / [2.83V 1m] "	"Frequency [Hz]"	"Sound Pessure Level [dB]  / [2.83V 1m] "	"Frequency [Hz]"	"Sound Pessure Level [dB]  / [2.83V 1m] "	"Frequency [Hz]"	"Sound Pessure Level [dB]  / [2.83V 1m] "	"Frequency [Hz]"	"Sound Pessure Level [dB]  / [2.83V 1m] "	"Frequency [Hz]"	"Sound Pessure Level [dB]  / [2.83V 1m] "	"Frequency [Hz]"	"Sound Pessure Level [dB]  / [2.83V 1m] "	"Frequency [Hz]"	"Sound Pessure Level [dB]  / [2.83V 1m] "	"Frequency [Hz]"	"Sound Pessure Level [dB]  / [2.83V 1m] "	"Frequency [Hz]"	"Sound Pessure Level [dB]  / [2.83V 1m] "	"Frequency [Hz]"	"Sound Pessure Level [dB]  / [2.83V 1m] "	"Frequency [Hz]"	"Sound Pessure Level [dB]  / [2.83V 1m] "	"Frequency [Hz]"	"Sound Pessure Level [dB]  / [2.83V 1m] "	"Frequency [Hz]"	"Sound Pessure Level [dB]  / [2.83V 1m] "	"Frequency [Hz]"	"Sound Pessure Level [dB]  / [2.83V 1m] "	"Frequency [Hz]"	"Sound Pessure Level [dB]  / [2.83V 1m] "	"Frequency [Hz]"	"Sound Pessure Level [dB]  / [2.83V 1m] "	"Frequency [Hz]"	"Sound Pessure Level [dB]  / [2.83V 1m] "	"Frequency [Hz]"	"Sound Pessure Level [dB]  / [2.83V 1m] "	"Frequency [Hz]"	"Sound Pessure Level [dB]  / [2.83V 1m] "	"Frequency [Hz]"	"Sound Pessure Level [dB]  / [2.83V 1m] "	"Frequency [Hz]"	"Sound Pessure Level [dB]  / [2.83V 1m] "
20.5078	55.18	20.5078	55.1897	20.5078	55.1797	20.5078	55.2085	20.5078	55.189	20.5078	55.2359	20.5078	55.2074	20.5078	55.2712	20.5078	55.2346	20.5078	55.3134	20.5078	55.2697	20.5078	55.361	20.5078	55.3116	20.5078	55.4126	20.5078	55.359	20.5078	55.4665	20.5078	55.4103	20.5078	55.5205	20.5078	55.4635	20.5078	55.5729	20.5078	55.5167	20.5078	55.6215	20.5078	55.5679	20.5078	55.6649	20.5078	55.6155	20.5078	55.7017	20.5078	55.658	20.5078	55.731	20.5078	55.6943	20.5078	55.7525	20.5078	55.7239	20.5078	55.7661	20.5078	55.7465	20.5078	55.7721	20.5078	55.7621	20.5078	55.7707
23.4375	59.0078	23.4375	59.0119	23.4375	59.0099	23.4375	59.0221	23.4375	59.0182	23.4375	59.0381	23.4375	59.0325	23.4375	59.0592	23.4375	59.0523	23.4375	59.0848	23.4375	59.0769	23.4375	59.1139	23.4375	59.1054	23.4375	59.1455	23.4375	59.1369	23.4375	59.1784	23.4375	59.1702	23.4375	59.2113	23.4375	59.2038	23.4375	59.243	23.4375	59.2365	23.4375	59.2723	23.4375	59.267	23.4375	59.2984	23.4375	59.2943	23.4375	59.3206	23.4375	59.3177	23.4375	59.3385	23.4375	59.3366	23.4375	59.3521	23.4375	59.351	23.4375	59.3616	23.4375	59.361	23.4375	59.3671	23.4375	59.3669	23.4375	59.3689
26.3672	62.6505	26.3672	62.6545	26.3672	62.6494	26.3672	62.6612	26.3672	62.6512	26.3672	62.6702	26.3672	62.6557	26.3672	62.6813	26.3672	62.6627	26.3672	62.6939	26.3672	62.6718	26.3672	62.7075	26.3672	62.6827	26.3672	62.7213	26.3672	62.6946	26.3672	62.7347	26.3672	62.7069	26.3672	62.7469	26.3672	62.719	26.3672	62.7573	26.3672	62.7301	26.3672	62.7654	26.3672	62.7399	26.3672	62.771	26.3672	62.7479	26.3672	62.7741	26.3672	62.754	26.3672	62.775	26.3672	62.7584	26.3672	62.7742	26.3672	62.7615	26.3672	62.7724	26.3672	62.7638	26.3672	62.7702	26.3672	62.7659	26.3672	62.7679
29.2969	65.8689	29.2969	65.8699	29.2969	65.868	29.2969	65.8708	29.2969	65.8671	29.2969	65.8716	29.2969	65.8662	29.2969	65.8718	29.2969	65.8651	29.2969	65.8715	29.2969	65.8637	29.2969	65.8701	29.2969	65.8617	29.2969	65.8674	29.2969	65.8588	29.2969	65.8632	29.2969	65.8548	29.2969	65.8573	29.2969	65.8494	29.2969	65.8495	29.2969	65.8426	29.2969	65.8402	29.2969	65.8343	29.2969	65.8296	29.2969	65.8249	29.2969	65.8183	29.2969	65.8148	29.2969	65.8072	29.2969	65.8048	29.2969	65.7972	29.2969	65.7956	29.2969	65.7892	29.2969	65.7883	29.2969	65.7839	29.2969	65.7835	29.2969	65.782
32.2266	68.7495	32.2266	68.7519	32.2266	68.7454	32.2266	68.7525	32.2266	68.7397	32.2266	68.7511	32.2266	68.7325	32.2266	68.7476	32.2266	68.7239	32.2266	68.7418	32.2266	68.7139	32.2266	68.7335	32.2266	68.7025	32.2266	68.7229	32.2266	68.6899	32.2266	68.7098	32.2266	68.6762	32.2266	68.6945	32.2266	68.6616	32.2266	68.6773	32.2266	68.6462	32.2266	68.6588	32.2266	68.6306	32.2266	68.6397	32.2266	68.6151	32.2266	68.6209	32.2266	68.6004	32.2266	68.6033	32.2266	68.5872	32.2266	68.588	32.2266	68.5761	32.2266	68.5758	32.2266	68.5681	32.2266	68.5675	32.2266	68.5637	32.2266	68.5635
35.1563	71.4116	35.1563	71.4117	35.1563	71.4082	35.1563	71.4086	35.1563	71.4018	35.1563	71.4022	35.1563	71.3923	35.1563	71.3925	35.1563	71.38	35.1563	71.3796	35.1563	71.365	35.1563	71.3634	35.1563	71.3475	35.1563	71.3444	35.1563	71.3277	35.1563	71.3227	35.1563	71.3061	35.1563	71.2988	35.1563	71.2829	35.1563	71.2735	35.1563	71.2588	35.1563	71.2474	35.1563	71.2345	35.1563	71.2215	35.1563	71.2106	35.1563	71.1969	35.1563	71.1882	35.1563	71.1746	35.1563	71.1681	35.1563	71.1559	35.1563	71.1513	35.1563	71.1416	35.1563	71.1387	35.1563	71.1325	35.1563	71.1311	35.1563	71.1289
38.0859	73.9119	38.0859	73.9117	38.0859	73.9076	38.0859	73.9071	38.0859	73.8991	38.0859	73.898	38.0859	73.8864	38.0859	73.8844	38.0859	73.8698	38.0859	73.8667	38.0859	73.8496	38.0859	73.8449	38.0859	73.8261	38.0859	73.8196	38.0859	73.7999	38.0859	73.7911	38.0859	73.7714	38.0859	73.7604	38.0859	73.7415	38.0859	73.7282	38.0859	73.7109	38.0859	73.6956	38.0859	73.6804	38.0859	73.6638	38.0859	73.6512	38.0859	73.634	38.0859	73.6241	38.0859	73.6076	38.0859	73.6002	38.0859	73.5856	38.0859	73.5805	38.0859	73.569	38.0859	73.5659	38.0859	73.5585	38.0859	73.5571	38.0859	73.5545
41.0156	76.0397	41.0156	76.0385	41.0156	76.036	41.0156	76.0324	41.0156	76.0275	41.0156	76.0214	41.0156	76.0143	41.0156	76.0056	41.0156	75.9967	41.0156	75.9855	41.0156	75.975	41.0156	75.9614	41.0156	75.9499	41.0156	75.934	41.0156	75.9217	41.0156	75.9038	41.0156	75.8912	41.0156	75.8719	41.0156	75.8592	41.0156	75.8391	41.0156	75.8267	41.0156	75.8066	41.0156	75.7947	41.0156	75.7754	41.0156	75.7644	41.0156	75.7467	41.0156	75.7367	41.0156	75.7214	41.0156	75.7129	41.0156	75.7004	41.0156	75.6937	41.0156	75.6845	41.0156	75.6798	41.0156	75.6743	41.0156	75.6719	41.0156	75.67
43.9453	77.9763	43.9453	77.9762	43.9453	77.97	43.9453	77.9696	43.9453	77.9574	43.9453	77.9565	43.9453	77.9389	43.9453	77.9373	43.9453	77.9148	43.9453	77.9122	43.9453	77.8858	43.9453	77.8817	43.9453	77.8525	43.9453	77.8468	43.9453	77.8158	43.9453	77.8082	43.9453	77.7767	43.9453	77.7671	43.9453	77.7363	43.9453	77.7248	43.9453	77.6957	43.9453	77.6828	43.9453	77.6563	43.9453	77.6426	43.9453	77.6194	43.9453	77.6056	43.9453	77.5861	43.9453	77.5731	43.9453	77.5576	43.9453	77.5463	43.9453	77.5349	43.9453	77.5261	43.9453	77.5186	43.9453	77.513	43.9453	77.5093	43.9453	77.5074
46.875	79.5814	46.875	79.581	46.875	79.5747	46.875	79.5737	46.875	79.5612	46.875	79.5596	46.875	79.5413	46.875	79.5391	46.875	79.5154	46.875	79.5126	46.875	79.4841	46.875	79.4808	46.875	79.4484	46.875	79.4447	46.875	79.4091	46.875	79.4053	46.875	79.3675	46.875	79.3638	46.875	79.3249	46.875	79.3216	46.875	79.2826	46.875	79.28	46.875	79.2421	46.875	79.2403	46.875	79.2048	46.875	79.204	46.875	79.172	46.875	79.1719	46.875	79.1446	46.875	79.1451	46.875	79.1236	46.875	79.1244	46.875	79.1095	46.875	79.1101	46.875	79.1025	46.875	79.1027
49.8047	80.9103	49.8047	80.9088	49.8047	80.9037	49.8047	80.8993	49.8047	80.8891	49.8047	80.8819	49.8047	80.867	49.8047	80.8571	49.8047	80.8378	49.8047	80.8257	49.8047	80.8024	49.8047	80.7884	49.8047	80.7618	49.8047	80.7463	49.8047	80.7171	49.8047	80.7008	49.8047	80.6696	49.8047	80.6534	49.8047	80.6211	49.8047	80.6055	49.8047	80.573	49.8047	80.5587	49.8047	80.527	49.8047	80.5146	49.8047	80.4847	49.8047	80.4746	49.8047	80.4476	49.8047	80.4398	49.8047	80.4166	49.8047	80.4111	49.8047	80.3927	49.8047	80.3892	49.8047	80.3764	49.8047	80.3745	49.8047	80.3679	49.8047	80.3673
52.7344	81.9227	52.7344	81.92	52.7344	81.9172	52.7344	81.909	52.7344	81.9035	52.7344	81.8901	52.7344	81.882	52.7344	81.8638	52.7344	81.8532	52.7344	81.831	52.7344	81.818	52.7344	81.7925	52.7344	81.7773	52.7344	81.7496	52.7344	81.7324	52.7344	81.7036	52.7344	81.6848	52.7344	81.6561	52.7344	81.636	52.7344	81.6087	52.7344	81.5878	52.7344	81.5629	52.7344	81.5418	52.7344	81.5201	52.7344	81.4997	52.7344	81.4818	52.7344	81.4627	52.7344	81.4488	52.7344	81.432	52.7344	81.4219	52.7344	81.4083	52.7344	81.4016	52.7344	81.3921	52.7344	81.3883	52.7344	81.3834	52.7344	81.3821
55.6641	82.6781	55.6641	82.6739	55.6641	82.6738	55.6641	82.6611	55.6641	82.6611	55.6641	82.6404	55.6641	82.6403	55.6641	82.6123	55.6641	82.612	55.6641	82.5778	55.6641	82.5772	55.6641	82.538	55.6641	82.537	55.6641	82.4944	55.6641	82.4928	55.6641	82.4484	55.6641	82.446	55.6641	82.4017	55.6641	82.3985	55.6641	82.3561	55.6641	82.3518	55.6641	82.3129	55.6641	82.3077	55.6641	82.2736	55.6641	82.2677	55.6641	82.2392	55.6641	82.233	55.6641	82.2103	55.6641	82.2043	55.6641	82.1875	55.6641	82.1823	55.6641	82.1709	55.6641	82.167	55.6641	82.1604	55.6641	82.1584	55.6641	82.1562
58.5938	83.2927	58.5938	83.2874	58.5938	83.2888	58.5938	83.2729	58.5938	83.2757	58.5938	83.2499	58.5938	83.2539	58.5938	83.219	58.5938	83.2242	58.5938	83.1814	58.5938	83.1874	58.5938	83.1384	58.5938	83.1451	58.5938	83.0917	58.5938	83.0985	58.5938	83.043	58.5938	83.0497	58.5938	82.9942	58.5938	83.0003	58.5938	82.947	58.5938	82.9522	58.5938	82.9033	58.5938	82.9072	58.5938	82.8641	58.5938	82.8667	58.5938	82.8307	58.5938	82.832	58.5938	82.8033	58.5938	82.8036	58.5938	82.7822	58.5938	82.7819	58.5938	82.7673	58.5938	82.7668	58.5938	82.7584	58.5938	82.7581	58.5938	82.7553
61.5234	83.7619	61.5234	83.7559	61.5234	83.7575	61.5234	83.74	61.5234	83.743	61.5234	83.7145	61.5234	83.7189	61.5234	83.6805	61.5234	83.686	61.5234	83.6391	61.5234	83.6454	61.5234	83.5921	61.5234	83.5988	61.5234	83.5413	61.5234	83.5478	61.5234	83.4886	61.5234	83.4945	61.5234	83.4362	61.5234	83.4409	61.5234	83.3861	61.5234	83.3891	61.5234	83.3399	61.5234	83.3411	61.5234	83.2991	61.5234	83.2985	61.5234	83.2645	61.5234	83.2624	61.5234	83.2365	61.5234	83.2334	61.5234	83.2151	61.5234	83.2117	61.5234	83.1999	61.5234	83.1971	61.5234	83.1906	61.5234	83.189	61.5234	83.1869
64.4531	84.1207	64.4531	84.1133	64.4531	84.1166	64.4531	84.0946	64.4531	84.101	64.4531	84.0652	64.4531	84.0745	64.4531	84.0263	64.4531	84.0379	64.4531	83.9792	64.4531	83.9925	64.4531	83.9257	64.4531	83.94	64.4531	83.8679	64.4531	83.8823	64.4531	83.8079	64.4531	83.8215	64.4531	83.7481	64.4531	83.7601	64.4531	83.6908	64.4531	83.7004	64.4531	83.6379	64.4531	83.6446	64.4531	83.5908	64.4531	83.5947	64.4531	83.5508	64.4531	83.5521	64.4531	83.5182	64.4531	83.5175	64.4531	83.4931	64.4531	83.4914	64.4531	83.4753	64.4531	83.4735	64.4531	83.4645	64.4531	83.4634	64.4531	83.4605
67.3828	84.3941	67.3828	84.3847	67.3828	84.3913	67.3828	84.3635	67.3828	84.3766	67.3828	84.3311	67.3828	84.3503	67.3828	84.2888	67.3828	84.3135	67.3828	84.2379	67.3828	84.2673	67.3828	84.1805	67.3828	84.2136	67.3828	84.1188	67.3828	84.1543	67.3828	84.0552	67.3828	84.0916	67.3828	83.9922	67.3828	84.0279	67.3828	83.9321	67.3828	83.9656	67.3828	83.8771	67.3828	83.9071	67.3828	83.8288	67.3828	83.8543	67.3828	83.7881	67.3828	83.8087	67.3828	83.7556	67.3828	83.7712	67.3828	83.7312	67.3828	83.7421	67.3828	83.7146	67.3828	83.7214	67.3828	83.7054	67.3828	83.7087	67.3828	83.7035
70.3125	84.6389	70.3125	84.6268	70.3125	84.6391	70.3125	84.6032	70.3125	84.6276	70.3125	84.5688	70.3125	84.6051	70.3125	84.5249	70.3125	84.5723	70.3125	84.4731	70.3125	84.5309	70.3125	84.4155	70.3125	84.4824	70.3125	84.3545	70.3125	84.4288	70.3125	84.2927	70.3125	84.3725	70.3125	84.2329	70.3125	84.3156	70.3125	84.1775	70.3125	84.2603	70.3125	84.1287	70.3125	84.2086	70.3125	84.088	70.3125	84.1621	70.3125	84.056	70.3125	84.1218	70.3125	84.033	70.3125	84.0881	70.3125	84.0182	70.3125	84.061	70.3125	84.0109	70.3125	84.0401	70.3125	84.0101	70.3125	84.0248	70.3125	84.0148
73.2422	84.8927	73.2422	84.8827	73.2422	84.8905	73.2422	84.8605	73.2422	84.8762	73.2422	84.8271	73.2422	84.8506	73.2422	84.7837	73.2422	84.8149	73.2422	84.7322	73.2422	84.7706	73.2422	84.6748	73.2422	84.7199	73.2422	84.614	73.2422	84.6649	73.2422	84.5527	73.2422	84.6083	73.2422	84.4938	73.2422	84.5523	73.2422	84.4398	73.2422	84.4994	73.2422	84.3928	73.2422	84.4514	73.2422	84.3544	73.2422	84.4096	73.2422	84.325	73.2422	84.3748	73.2422	84.3045	73.2422	84.3468	73.2422	84.292	73.2422	84.3252	73.2422	84.2862	73.2422	84.3091	73.2422	84.2858	73.2422	84.2974	73.2422	84.2897
76.1719	85.0983	76.1719	85.0876	76.1719	85.0955	76.1719	85.0638	76.1719	85.0796	76.1719	85.0278	76.1719	85.0514	76.1719	84.981	76.1719	85.012	76.1719	84.9255	76.1719	84.9634	76.1719	84.8636	76.1719	84.9077	76.1719	84.7982	76.1719	84.8474	76.1719	84.7325	76.1719	84.7854	76.1719	84.6695	76.1719	84.7244	76.1719	84.6119	76.1719	84.6668	76.1719	84.5621	76.1719	84.615	76.1719	84.5214	76.1719	84.5704	76.1719	84.4905	76.1719	84.5336	76.1719	84.4688	76.1719	84.5048	76.1719	84.4554	76.1719	84.4831	76.1719	84.4487	76.1719	84.4675	76.1719	84.4473	76.1719	84.4568	76.1719	84.4501
79.1016	85.2359	79.1016	85.226	79.1016	85.2323	79.1016	85.2031	79.1016	85.2157	79.1016	85.1681	79.1016	85.1869	79.1016	85.1225	79.1016	85.1475	79.1016	85.0685	79.1016	85.0995	79.1016	85.0087	79.1016	85.0453	79.1016	84.9461	79.1016	84.9878	79.1016	84.884	79.1016	84.9297	79.1016	84.8255	79.1016	84.874	79.1016	84.7735	79.1016	84.8231	79.1016	84.73	79.1016	84.7789	79.1016	84.6962	79.1016	84.7425	79.1016	84.6723	79.1016	84.714	79.1016	84.6574	79.1016	84.693	79.1016	84.65	79.1016	84.6779	79.1016	84.6481	79.1016	84.6673	79.1016	84.6499	79.1016	84.6597	79.1016	84.6539
82.0313	85.5419	82.0313	85.5366	82.0313	85.5314	82.0313	85.5157	82.0313	85.5055	82.0313	85.4802	82.0313	85.4653	82.0313	85.4318	82.0313	85.4127	82.0313	85.3729	82.0313	85.3502	82.0313	85.3065	82.0313	85.2809	82.0313	85.236	82.0313	85.2082	82.0313	85.1651	82.0313	85.136	82.0313	85.0976	82.0313	85.0679	82.0313	85.0368	82.0313	85.0073	82.0313	84.985	82.0313	84.9565	82.0313	84.9438	82.0313	84.9171	82.0313	84.9132	82.0313	84.8892	82.0313	84.8922	82.0313	84.8717	82.0313	84.8789	82.0313	84.8626	82.0313	84.8708	82.0313	84.8595	82.0313	84.8658	82.0313	84.86	82.0313	84.8623
84.9609	85.7689	84.9609	85.7648	84.9609	85.7538	84.9609	85.742	84.9609	85.7199	84.9609	85.7013	84.9609	85.6684	84.9609	85.6443	84.9609	85.601	84.9609	85.5734	84.9609	85.5201	84.9609	85.4916	84.9609	85.429	84.9609	85.4023	84.9609	85.3315	84.9609	85.3094	84.9609	85.2319	84.9609	85.2171	84.9609	85.1348	84.9609	85.1294	84.9609	85.0445	84.9609	85.0496	84.9609	84.965	84.9609	84.9802	84.9609	84.899	84.9609	84.9225	84.9609	84.8479	84.9609	84.8764	84.9609	84.8118	84.9609	84.841	84.9609	84.7895	84.9609	84.8147	84.9609	84.7788	84.9609	84.7958	84.9609	84.7774	84.9609	84.7834
87.8906	85.7578	87.8906	85.7449	87.8906	85.7565	87.8906	85.7183	87.8906	85.7406	87.8906	85.6791	87.8906	85.7105	87.8906	85.6291	87.8906	85.667	87.8906	85.57	87.8906	85.6115	87.8906	85.5041	87.8906	85.5457	87.8906	85.4338	87.8906	85.4721	87.8906	85.3618	87.8906	85.3934	87.8906	85.2904	87.8906	85.3128	87.8906	85.2219	87.8906	85.2335	87.8906	85.1582	87.8906	85.1588	87.8906	85.1008	87.8906	85.0915	87.8906	85.0506	87.8906	85.034	87.8906	85.0082	87.8906	84.9877	87.8906	84.9737	87.8906	84.9535	87.8906	84.9474	87.8906	84.9313	87.8906	84.9293	87.8906	84.9205	87.8906	84.9201
90.8203	85.6456	90.8203	85.6286	90.8203	85.6497	90.8203	85.5993	90.8203	85.6411	90.8203	85.5595	90.8203	85.6209	90.8203	85.5113	90.8203	85.5908	90.8203	85.458	90.8203	85.5532	90.8203	85.4032	90.8203	85.5111	90.8203	85.3507	90.8203	85.4677	90.8203	85.3045	90.8203	85.4263	90.8203	85.2679	90.8203	85.3897	90.8203	85.243	90.8203	85.3602	90.8203	85.2308	90.8203	85.3393	90.8203	85.2308	90.8203	85.327	90.8203	85.2409	90.8203	85.3224	90.8203	85.258	90.8203	85.3233	90.8203	85.2783	90.8203	85.327	90.8203	85.2982	90.8203	85.3303	90.8203	85.3146	90.8203	85.3305	90.8203	85.3255
93.75	85.9688	93.75	85.9579	93.75	85.961	93.75	85.9286	93.75	85.9352	93.75	85.8823	93.75	85.8928	93.75	85.8214	93.75	85.8365	93.75	85.7492	93.75	85.7697	93.75	85.67	93.75	85.6964	93.75	85.5887	93.75	85.6214	93.75	85.5107	93.75	85.5493	93.75	85.4409	93.75	85.4846	93.75	85.3836	93.75	85.431	93.75	85.3416	93.75	85.3905	93.75	85.316	93.75	85.364	93.75	85.3054	93.75	85.35	93.75	85.307	93.75	85.3457	93.75	85.3166	93.75	85.3474	93.75	85.3294	93.75	85.3508	93.75	85.3413	93.75	85.3523	93.75	85.3493
96.6797	86.1864	96.6797	86.1794	96.6797	86.1728	96.6797	86.1523	96.6797	86.1387	96.6797	86.1065	96.6797	86.0853	96.6797	86.0443	96.6797	86.0146	96.6797	85.9685	96.6797	85.9293	96.6797	85.883	96.6797	85.8331	96.6797	85.7918	96.6797	85.7305	96.6797	85.6995	96.6797	85.6265	96.6797	85.6105	96.6797	85.5264	96.6797	85.5288	96.6797	85.4352	96.6797	85.4573	96.6797	85.3573	96.6797	85.3977	96.6797	85.2956	96.6797	85.35	96.6797	85.2514	96.6797	85.3132	96.6797	85.2242	96.6797	85.285	96.6797	85.2116	96.6797	85.2629	96.6797	85.2106	96.6797	85.2447	96.6797	85.2175	96.6797	85.2295
102.539	86.3503	102.539	86.3351	102.539	86.3452	102.539	86.3003	102.539	86.32	102.539	86.2475	102.539	86.2762	102.539	86.1797	102.539	86.216	102.539	86.1003	102.539	86.1428	102.539	86.014	102.539	86.0604	102.539	85.9258	102.539	85.9735	102.539	85.8407	102.539	85.8872	102.539	85.7637	102.539	85.8061	102.539	85.6987	102.539	85.7346	102.539	85.648	102.539	85.6757	102.539	85.6123	102.539	85.6313	102.539	85.5904	102.539	85.6012	102.539	85.5797	102.539	85.5838	102.539	85.5764	102.539	85.5763	102.539	85.5768	102.539	85.575	102.539	85.5779	102.539	85.5764	102.539	85.5779
105.469	86.3975	105.469	86.3817	105.469	86.3921	105.469	86.3453	105.469	86.3657	105.469	86.29	105.469	86.3199	105.469	86.2188	105.469	86.2572	105.469	86.1356	105.469	86.1812	105.469	86.0451	105.469	86.0964	105.469	85.9529	105.469	86.0077	105.469	85.8644	105.469	85.9207	105.469	85.7852	105.469	85.8404	105.469	85.7195	105.469	85.7714	105.469	85.6702	105.469	85.7167	105.469	85.6379	105.469	85.6776	105.469	85.6213	105.469	85.6535	105.469	85.6171	105.469	85.6417	105.469	85.6212	105.469	85.6386	105.469	85.6289	105.469	85.6399	105.469	85.6362	105.469	85.6415	105.469	85.6407
108.398	86.4812	108.398	86.4684	108.398	86.4714	108.398	86.4337	108.398	86.4394	108.398	86.3789	108.398	86.3869	108.398	86.307	108.398	86.3167	108.398	86.2221	108.398	86.2328	108.398	86.1294	108.398	86.1399	108.398	86.0347	108.398	86.0438	108.398	85.9439	108.398	85.9504	108.398	85.8628	108.398	85.8658	108.398	85.796	108.398	85.7948	108.398	85.7464	108.398	85.7408	108.398	85.7146	108.398	85.7051	108.398	85.6988	108.398	85.6867	108.398	85.6955	108.398	85.6825	108.398	85.6998	108.398	85.6878	108.398	85.7066	108.398	85.6973	108.398	85.7114	108.398	85.7064	108.398	85.7116
111.328	86.6153	111.328	86.6027	111.328	86.604	111.328	86.5672	111.328	86.5693	111.328	86.5106	111.328	86.5127	111.328	86.4362	111.328	86.437	111.328	86.3484	111.328	86.3462	111.328	86.2523	111.328	86.2453	111.328	86.1541	111.328	86.1405	111.328	86.06	111.328	86.0381	111.328	85.9758	111.328	85.9447	111.328	85.9063	111.328	85.866	111.328	85.8542	111.328	85.806	111.328	85.8202	111.328	85.7666	111.328	85.8022	111.328	85.7471	111.328	85.7962	111.328	85.7441	111.328	85.7972	111.328	85.7529	111.328	85.7998	111.328	85.7675	111.328	85.7995	111.328	85.7825	111.328	85.7939
117.188	86.8174	117.188	86.7969	117.188	86.8121	117.188	86.7518	117.188	86.7814	117.188	86.6843	117.188	86.727	117.188	86.5983	117.188	86.6518	117.188	86.4985	117.188	86.5601	117.188	86.3914	117.188	86.4572	117.188	86.2838	117.188	86.3496	117.188	86.1829	117.188	86.2444	117.188	86.0956	117.188	86.1484	117.188	86.0271	117.188	86.0678	117.188	85.9802	117.188	86.0068	117.188	85.9549	117.188	85.9675	117.188	85.9481	117.188	85.9487	117.188	85.9547	117.188	85.9469	117.188	85.9681	117.188	85.9564	117.188	85.9818	117.188	85.9709	117.188	85.9906	117.188	85.9841	117.188	85.9915
120.117	86.971	120.117	86.946	120.117	86.9685	120.117	86.8947	120.117	86.9388	120.117	86.8196	120.117	86.8837	120.117	86.7248	120.117	86.8063	120.117	86.6157	120.117	86.7111	120.117	86.499	120.117	86.604	120.117	86.3826	120.117	86.492	120.117	86.2744	120.117	86.3825	120.117	86.182	120.117	86.2832	120.117	86.1111	120.117	86.2006	120.117	86.065	120.117	86.1392	120.117	86.0435	120.117	86.1009	120.117	86.0433	120.117	86.0842	120.117	86.0582	120.117	86.0848	120.117	86.0807	120.117	86.0962	120.117	86.1033	120.117	86.1112	120.117	86.1199	120.117	86.123	120.117	86.1267
125.977	87.0812	125.977	87.055	125.977	87.0782	125.977	87.0003	125.977	87.0465	125.977	86.9192	125.977	86.9882	125.977	86.8153	125.977	86.9064	125.977	86.6938	125.977	86.8059	125.977	86.5615	125.977	86.6926	125.977	86.4263	125.977	86.5734	125.977	86.2972	125.977	86.456	125.977	86.183	125.977	86.3481	125.977	86.0914	125.977	86.2563	125.977	86.0274	125.977	86.1855	125.977	85.9924	125.977	86.1374	125.977	85.9841	125.977	86.1106	125.977	85.9966	125.977	86.1007	125.977	86.0218	125.977	86.1011	125.977	86.0513	125.977	86.1045	125.977	86.0777	125.977	86.1043	125.977	86.0959
128.906	87.0085	128.906	86.9899	128.906	86.9977	128.906	86.9427	128.906	86.9581	128.906	86.8687	128.906	86.892	128.906	86.7713	128.906	86.8025	128.906	86.6555	128.906	86.6947	128.906	86.5275	128.906	86.5747	128.906	86.395	128.906	86.4499	128.906	86.2663	128.906	86.3284	128.906	86.1499	128.906	86.2181	128.906	86.0535	128.906	86.1259	128.906	85.9824	128.906	86.0565	128.906	85.9387	128.906	86.0115	128.906	85.9208	128.906	85.9888	128.906	85.9239	128.906	85.9834	128.906	85.9406	128.906	85.9884	128.906	85.9628	128.906	85.9963	128.906	85.9831	128.906	86.0003	128.906	85.9963
134.766	86.999	134.766	86.9872	134.766	86.9802	134.766	86.9463	134.766	86.9312	134.766	86.8791	134.766	86.8537	134.766	86.79	134.766	86.7515	134.766	86.685	134.766	86.6299	134.766	86.5713	134.766	86.496	134.766	86.457	134.766	86.3584	134.766	86.3503	134.766	86.2269	134.766	86.2587	134.766	86.1112	134.766	86.1879	134.766	86.02	134.766	86.1405	134.766	85.9591	134.766	86.1161	134.766	85.9306	134.766	86.1104	134.766	85.932	134.766	86.1168	134.766	85.9573	134.766	86.1273	134.766	85.9973	134.766	86.134	134.766	86.0423	134.766	86.1308	134.766	86.0834	134.766	86.114
137.695	87.0234	137.695	87	137.695	87.0149	137.695	86.9463	137.695	86.9747	137.695	86.8657	137.695	86.9044	137.695	86.7634	137.695	86.8076	137.695	86.6462	137.695	86.6898	137.695	86.5225	137.695	86.5584	137.695	86.4015	137.695	86.4221	137.695	86.2927	137.695	86.2912	137.695	86.2044	137.695	86.1759	137.695	86.1426	137.695	86.0853	137.695	86.1095	137.695	86.0258	137.695	86.1031	137.695	85.9997	137.695	86.1175	137.695	86.0045	137.695	86.144	137.695	86.0335	137.695	86.1728	137.695	86.077	137.695	86.1947	137.695	86.1242	137.695	86.2026	137.695	86.1653	137.695	86.1928
143.555	87.0427	143.555	87.0096	143.555	87.0397	143.555	86.9418	143.555	87.0013	143.555	86.8425	143.555	86.9296	143.555	86.7171	143.555	86.829	143.555	86.5733	143.555	86.7056	143.555	86.421	143.555	86.5674	143.555	86.2717	143.555	86.4242	143.555	86.1377	143.555	86.287	143.555	86.0305	143.555	86.167	143.555	85.9588	143.555	86.0738	143.555	85.9265	143.555	86.0142	143.555	85.9314	143.555	85.99	143.555	85.9659	143.555	85.9979	143.555	86.0185	143.555	86.0298	143.555	86.0757	143.555	86.0742	143.555	86.1252	143.555	86.1188	143.555	86.1573	143.555	86.1524	143.555	86.1666
149.414	87.1821	149.414	87.151	149.414	87.1726	149.414	87.0806	149.414	87.1232	149.414	86.9741	149.414	87.0363	149.414	86.8364	149.414	86.9161	149.414	86.6753	149.414	86.769	149.414	86.5005	149.414	86.6037	149.414	86.3241	149.414	86.4312	149.414	86.1596	149.414	86.2638	149.414	86.0205	149.414	86.1149	149.414	85.9177	149.414	85.9965	149.414	85.8577	149.414	85.917	149.414	85.8407	149.414	85.8796	149.414	85.8602	149.414	85.8806	149.414	85.9042	149.414	85.9106	149.414	85.9583	149.414	85.9563	149.414	86.008	149.414	86.003	149.414	86.0417	149.414	86.0381	149.414	86.0523
155.273	87.2914	155.273	87.2603	155.273	87.2814	155.273	87.1892	155.273	87.2307	155.273	87.0811	155.273	87.1415	155.273	86.9408	155.273	87.0179	155.273	86.7754	155.273	86.8658	155.273	86.5945	155.273	86.6934	155.273	86.4095	155.273	86.511	155.273	86.2338	155.273	86.3309	155.273	86.0807	155.273	86.1662	155.273	85.9614	155.273	86.0291	155.273	85.883	155.273	85.9291	155.273	85.8467	155.273	85.8703	155.273	85.8469	155.273	85.8511	155.273	85.8729	155.273	85.8633	155.273	85.9112	155.273	85.8951	155.273	85.948	155.273	85.9325	155.273	85.9725	155.273	85.9632	155.273	85.9779
158.203	87.2993	158.203	87.2707	158.203	87.286	158.203	87.2014	158.203	87.2313	158.203	87.0944	158.203	87.1375	158.203	86.9549	158.203	87.0088	158.203	86.7902	158.203	86.8516	158.203	86.6103	158.203	86.6746	158.203	86.4271	158.203	86.4889	158.203	86.2543	158.203	86.3072	158.203	86.1055	158.203	86.1435	158.203	85.9918	158.203	86.0103	158.203	85.9202	158.203	85.9171	158.203	85.8908	158.203	85.8677	158.203	85.8975	158.203	85.8594	158.203	85.9287	158.203	85.8831	158.203	85.9702	158.203	85.9259	158.203	86.008	158.203	85.9733	158.203	86.0311	158.203	86.012	158.203	86.0328
164.063	87.3626	164.063	87.331	164.063	87.3506	164.063	87.2572	164.063	87.2955	164.063	87.1444	164.063	87.1993	164.063	86.998	164.063	87.0661	164.063	86.8257	164.063	86.9023	164.063	86.6379	164.063	86.7168	164.063	86.4476	164.063	86.5209	164.063	86.2691	164.063	86.3283	164.063	86.1169	164.063	86.1541	164.063	86.0032	164.063	86.0125	164.063	85.9349	164.063	85.9142	164.063	85.912	164.063	85.8643	164.063	85.927	164.063	85.8601	164.063	85.9668	164.063	85.8919	164.063	86.0155	164.063	85.9451	164.063	86.0577	164.063	86.0035	164.063	86.0814	164.063	86.052	164.063	86.0798
169.922	87.2349	169.922	87.1938	169.922	87.2309	169.922	87.1093	169.922	87.1822	169.922	86.985	169.922	87.091	169.922	86.8269	169.922	86.9615	169.922	86.6437	169.922	86.8001	169.922	86.4471	169.922	86.6159	169.922	86.2514	169.922	86.4208	169.922	86.0727	169.922	86.2292	169.922	85.9267	169.922	86.0566	169.922	85.8257	169.922	85.9184	169.922	85.776	169.922	85.8258	169.922	85.7758	169.922	85.7839	169.922	85.815	169.922	85.7897	169.922	85.8782	169.922	85.8324	169.922	85.9472	169.922	85.8959	169.922	86.0052	169.922	85.9623	169.922	86.0395	169.922	86.0153	169.922	86.0431
175.781	87.0905	175.781	87.0515	175.781	87.081	175.781	86.9647	175.781	87.0243	175.781	86.8329	175.781	86.9237	175.781	86.6614	175.781	86.7844	175.781	86.4591	175.781	86.6141	175.781	86.2384	175.781	86.4229	175.781	86.0157	175.781	86.2238	175.781	85.8101	175.781	86.032	175.781	85.6417	175.781	85.8639	175.781	85.5273	175.781	85.7346	175.781	85.4761	175.781	85.6548	175.781	85.4872	175.781	85.628	175.781	85.5485	175.781	85.6489	175.781	85.6406	175.781	85.7045	175.781	85.741	175.781	85.7765	175.781	85.8288	175.781	85.8456	175.781	85.8883	175.781	85.8945	175.781	85.9107
181.641	87.1241	181.641	87.0992	181.641	87.0971	181.641	87.0229	181.641	87.0194	181.641	86.8978	181.641	86.894	181.641	86.7287	181.641	86.7262	181.641	86.5234	181.641	86.5235	181.641	86.2934	181.641	86.297	181.641	86.0543	181.641	86.0609	181.641	85.8251	181.641	85.8327	181.641	85.6271	181.641	85.6318	181.641	85.4793	181.641	85.4768	181.641	85.3947	181.641	85.3812	181.641	85.3759	181.641	85.3498	181.641	85.4133	181.641	85.3765	181.641	85.4879	181.641	85.4454	181.641	85.5761	181.641	85.535	181.641	85.6546	181.641	85.6222	181.641	85.7053	181.641	85.6875	181.641	85.7171
190.43	87.1015	190.43	87.0704	190.43	87.0807	190.43	86.9891	190.43	87.0078	190.43	86.8611	190.43	86.8844	190.43	86.692	190.43	86.7143	190.43	86.4895	190.43	86.5037	190.43	86.2647	190.43	86.2622	190.43	86.0315	190.43	86.0035	190.43	85.807	190.43	85.745	190.43	85.6096	190.43	85.5074	190.43	85.4563	190.43	85.3121	190.43	85.3588	190.43	85.1767	190.43	85.3197	190.43	85.111	190.43	85.3311	190.43	85.1129	190.43	85.3762	190.43	85.1689	190.43	85.4335	190.43	85.2573	190.43	85.4814	190.43	85.3537	190.43	85.503	190.43	85.4359	190.43	85.4883
196.289	87.0157	196.289	86.9622	196.289	87.0136	196.289	86.8554	196.289	86.9557	196.289	86.7001	196.289	86.8441	196.289	86.5036	196.289	86.6829	196.289	86.2769	196.289	86.4796	196.289	86.0342	196.289	86.2446	196.289	85.7936	196.289	85.9925	196.289	85.5755	196.289	85.7417	196.289	85.4004	196.289	85.5136	196.289	85.2843	196.289	85.3296	196.289	85.2348	196.289	85.2072	196.289	85.2482	196.289	85.1553	196.289	85.3098	196.289	85.1707	196.289	85.3975	196.289	85.2391	196.289	85.4871	196.289	85.3379	196.289	85.5569	196.289	85.4421	196.289	85.5911	196.289	85.5289	196.289	85.5816
202.148	87.0159	202.148	86.9542	202.148	87.0161	202.148	86.8326	202.148	86.9555	202.148	86.6545	202.148	86.8367	202.148	86.427	202.148	86.6645	202.148	86.1607	202.148	86.4464	202.148	85.8715	202.148	86.1935	202.148	85.5804	202.148	85.9212	202.148	85.3135	202.148	85.6492	202.148	85.0978	202.148	85.4008	202.148	84.9562	202.148	85.1996	202.148	84.9004	202.148	85.0654	202.148	84.9264	202.148	85.0079	202.148	85.0151	202.148	85.0236	202.148	85.1376	202.148	85.0958	202.148	85.2632	202.148	85.1991	202.148	85.3651	202.148	85.3054	202.148	85.4246	202.148	85.3894	202.148	85.4325
210.938	86.9372	210.938	86.8882	210.938	86.9244	210.938	86.7778	210.938	86.851	210.938	86.608	210.938	86.7199	210.938	86.383	210.938	86.536	210.938	86.1103	210.938	86.3071	210.938	85.8019	210.938	86.0443	210.938	85.4756	210.938	85.7628	210.938	85.1558	210.938	85.4819	210.938	84.8721	210.938	85.2244	210.938	84.655	210.938	85.0131	210.938	84.5275	210.938	84.8664	210.938	84.4973	210.938	84.7931	210.938	84.5524	210.938	84.7894	210.938	84.6652	210.938	84.8385	210.938	84.8005	210.938	84.9155	210.938	84.9253	210.938	84.9926	210.938	85.0149	210.938	85.0453	210.938	85.0556
216.797	86.8242	216.797	86.7748	216.797	86.8087	216.797	86.6615	216.797	86.7293	216.797	86.4875	216.797	86.5894	216.797	86.2587	216.797	86.3948	216.797	85.9845	216.797	86.155	216.797	85.6792	216.797	85.8838	216.797	85.3627	216.797	85.5998	216.797	85.0605	216.797	85.3261	216.797	84.8019	216.797	85.0884	216.797	84.6146	216.797	84.9102	216.797	84.5178	216.797	84.8075	216.797	84.5152	216.797	84.7832	216.797	84.5928	216.797	84.8258	216.797	84.7229	216.797	84.9122	216.797	84.8724	216.797	85.0139	216.797	85.0097	216.797	85.1031	216.797	85.111	216.797	85.1572	216.797	85.1617
225.586	87.086	225.586	87.0533	225.586	87.0457	225.586	86.9481	225.586	86.9331	225.586	86.7725	225.586	86.7504	225.586	86.5304	225.586	86.5022	225.586	86.2295	225.586	86.1963	225.586	85.8827	225.586	85.8464	225.586	85.5103	225.586	85.4733	225.586	85.1411	225.586	85.1066	225.586	84.8119	225.586	84.7832	225.586	84.5618	225.586	84.5415	225.586	84.4215	225.586	84.4108	225.586	84.4016	225.586	84.3997	225.586	84.4871	225.586	84.4916	225.586	84.6418	225.586	84.6496	225.586	84.8207	225.586	84.829	225.586	84.9814	225.586	84.9881	225.586	85.0918	225.586	85.0954	225.586	85.132
234.375	86.9721	234.375	86.9168	234.375	86.958	234.375	86.7953	234.375	86.872	234.375	86.6122	234.375	86.713	234.375	86.374	234.375	86.4813	234.375	86.09	234.375	86.1801	234.375	85.7734	234.375	85.8176	234.375	85.4426	234.375	85.4096	234.375	85.1219	234.375	84.9824	234.375	84.84	234.375	84.5753	234.375	84.6255	234.375	84.237	234.375	84.5004	234.375	84.0156	234.375	84.4715	234.375	83.9403	234.375	84.5262	234.375	84.0074	234.375	84.6353	234.375	84.18	234.375	84.7608	234.375	84.4029	234.375	84.8648	234.375	84.6215	234.375	84.9161	234.375	84.7937	234.375	84.8947
240.234	86.8681	240.234	86.7817	240.234	86.8791	240.234	86.6211	240.234	86.8145	240.234	86.3894	240.234	86.6747	240.234	86.0926	240.234	86.4614	240.234	85.7413	240.234	86.1779	240.234	85.3528	240.234	85.8316	240.234	84.9532	240.234	85.4359	240.234	84.5775	240.234	85.014	240.234	84.2668	240.234	84.601	240.234	84.0596	240.234	84.2431	240.234	83.9788	240.234	83.9894	240.234	84.022	240.234	83.8753	240.234	84.1601	240.234	83.9062	240.234	84.3475	240.234	84.0527	240.234	84.5354	240.234	84.2617	240.234	84.682	240.234	84.4759	240.234	84.7577	240.234	84.6481	240.234	84.7468
249.023	86.9378	249.023	86.8743	249.023	86.9291	249.023	86.7377	249.023	86.8489	249.023	86.5276	249.023	86.6978	249.023	86.2449	249.023	86.4761	249.023	85.8937	249.023	86.1851	249.023	85.4835	249.023	85.8287	249.023	85.0321	249.023	85.4158	249.023	84.5689	249.023	84.9638	249.023	84.1356	249.023	84.5017	249.023	83.7818	249.023	84.0716	249.023	83.5518	249.023	83.7243	249.023	83.4672	249.023	83.5049	249.023	83.5147	249.023	83.4342	249.023	83.6506	249.023	83.4964	249.023	83.8174	249.023	83.6442	249.023	83.9617	249.023	83.8181	249.023	84.0448	249.023	83.9646	249.023	84.0462
257.813	86.8677	257.813	86.8025	257.813	86.8655	257.813	86.6687	257.813	86.7975	257.813	86.4664	257.813	86.665	257.813	86.1973	257.813	86.4697	257.813	85.8668	257.813	86.2138	257.813	85.4861	257.813	85.9013	257.813	85.0743	257.813	85.5399	257.813	84.6611	257.813	85.144	257.813	84.2863	257.813	84.7377	257.813	83.9938	257.813	84.3556	257.813	83.8197	257.813	84.0404	257.813	83.7768	257.813	83.8324	257.813	83.8471	257.813	83.7539	257.813	83.9876	257.813	83.7974	257.813	84.1455	257.813	83.9264	257.813	84.2736	257.813	84.0889	257.813	84.3385	257.813	84.2344	257.813	84.3246
266.602	86.5543	266.602	86.4976	266.602	86.5363	266.602	86.364	266.602	86.4467	266.602	86.1522	266.602	86.2889	266.602	85.8624	266.602	86.0668	266.602	85.4986	266.602	85.7853	266.602	85.0705	266.602	85.4511	266.602	84.5982	266.602	85.0744	266.602	84.1157	266.602	84.6708	266.602	83.6736	266.602	84.2644	266.602	83.3327	266.602	83.8891	266.602	83.1461	266.602	83.5862	266.602	83.1337	266.602	83.3946	266.602	83.2686	266.602	83.336	266.602	83.4881	266.602	83.4025	266.602	83.7198	266.602	83.5562	266.602	83.9038	266.602	83.7421	266.602	84.0023	266.602	83.9048	266.602	84.0003
278.32	86.5063	278.32	86.4548	278.32	86.4753	278.32	86.3184	278.32	86.3655	278.32	86.096	278.32	86.1824	278.32	85.7886	278.32	85.9333	278.32	85.4003	278.32	85.6281	278.32	84.9409	278.32	85.2796	278.32	84.4292	278.32	84.905	278.32	83.8982	278.32	84.5264	278.32	83.3984	278.32	84.1712	278.32	82.9945	278.32	83.8705	278.32	82.7499	278.32	83.6537	278.32	82.6984	278.32	83.5402	278.32	82.8247	278.32	83.5308	278.32	83.069	278.32	83.6042	278.32	83.3552	278.32	83.7218	278.32	83.6161	278.32	83.8377	278.32	83.8065	278.32	83.9093	278.32	83.9045
287.109	86.5442	287.109	86.5146	287.109	86.4932	287.109	86.4046	287.109	86.3609	287.109	86.2134	287.109	86.1476	287.109	85.9392	287.109	85.8563	287.109	85.5805	287.109	85.4949	287.109	85.1392	287.109	85.0784	287.109	84.6246	287.109	84.6317	287.109	84.0609	287.109	84.1899	287.109	83.4943	287.109	83.7966	287.109	82.9956	287.109	83.4965	287.109	82.6482	287.109	83.322	287.109	82.5149	287.109	83.2807	287.109	82.5999	287.109	83.3516	287.109	82.8438	287.109	83.4919	287.109	83.1564	287.109	83.6508	287.109	83.4553	287.109	83.781	287.109	83.6847	287.109	83.8446	287.109	83.8163
295.898	86.5656	295.898	86.5148	295.898	86.5374	295.898	86.3899	295.898	86.4238	295.898	86.1946	295.898	86.218	295.898	85.9314	295.898	85.9134	295.898	85.6022	295.898	85.5062	295.898	85.2105	295.898	84.9988	295.898	84.7635	295.898	84.4052	295.898	84.2768	295.898	83.7591	295.898	83.7797	295.898	83.1218	295.898	83.3181	295.898	82.5823	295.898	82.9512	295.898	82.2366	295.898	82.7342	295.898	82.1415	295.898	82.6913	295.898	82.2775	295.898	82.7993	295.898	82.5593	295.898	82.9951	295.898	82.883	295.898	83.2028	295.898	83.1638	295.898	83.3569	295.898	83.3484	295.898	83.4128
307.617	86.4976	307.617	86.4056	307.617	86.5096	307.617	86.234	307.617	86.4414	307.617	85.9838	307.617	86.292	307.617	85.6577	307.617	86.0599	307.617	85.261	307.617	85.7432	307.617	84.8038	307.617	85.341	307.617	84.3043	307.617	84.8571	307.617	83.7929	307.617	84.3055	307.617	83.3155	307.617	83.7182	307.617	82.9313	307.617	83.1533	307.617	82.6989	307.617	82.694	307.617	82.6507	307.617	82.4276	307.617	82.7724	307.617	82.4004	307.617	83.0051	307.617	82.5847	307.617	83.2696	307.617	82.8909	307.617	83.4916	307.617	83.2143	307.617	83.6161	307.617	83.4714	307.617	83.6118
319.336	86.3841	319.336	86.3176	319.336	86.3717	319.336	86.1667	319.336	86.2849	319.336	85.926	319.336	86.1265	319.336	85.591	319.336	85.8976	319.336	85.1601	319.336	85.5976	319.336	84.6375	319.336	85.2251	319.336	84.0383	319.336	84.7808	319.336	83.3948	319.336	84.2719	319.336	82.7646	319.336	83.7187	319.336	82.2313	319.336	83.1624	319.336	81.8861	319.336	82.6691	319.336	81.7865	319.336	82.3182	319.336	81.9176	319.336	82.1704	319.336	82.197	319.336	82.2287	319.336	82.5186	319.336	82.4304	319.336	82.7921	319.336	82.6792	319.336	82.9581	319.336	82.886	319.336	82.989
331.055	85.9724	331.055	85.9259	331.055	85.9467	331.055	85.805	331.055	85.8525	331.055	85.6078	331.055	85.6945	331.055	85.3335	331.055	85.4782	331.055	84.9818	331.055	85.2097	331.055	84.5551	331.055	84.8949	331.055	84.061	331.055	84.5406	331.055	83.5184	331.055	84.156	331.055	82.9633	331.055	83.7553	331.055	82.4543	331.055	83.361	331.055	82.0657	331.055	83.0053	331.055	81.8627	331.055	82.7261	331.055	81.8649	331.055	82.5554	331.055	82.0295	331.055	82.5035	331.055	82.2727	331.055	82.5486	331.055	82.5086	331.055	82.6422	331.055	82.6761	331.055	82.7254	331.055	82.7471
342.773	85.9814	342.773	85.9513	342.773	85.9019	342.773	85.8113	342.773	85.7131	342.773	85.5613	342.773	85.4157	342.773	85.2022	342.773	85.0122	342.773	84.738	342.773	84.5095	342.773	84.1797	342.773	83.923	342.773	83.552	342.773	83.2836	342.773	82.9021	342.773	82.6459	342.773	82.3068	342.773	82.0925	342.773	81.8672	342.773	81.7218	342.773	81.6749	342.773	81.6093	342.773	81.7593	342.773	81.7612	342.773	82.0647	342.773	82.1071	342.773	82.4834	342.773	82.5395	342.773	82.9079	342.773	82.9596	342.773	83.2594	342.773	83.2971	342.773	83.4903	342.773	83.5097	342.773	83.5762
354.492	86.212	354.492	86.1382	354.492	86.194	354.492	85.9755	354.492	86.0797	354.492	85.7247	354.492	85.8638	354.492	85.3843	354.492	85.5408	354.492	84.9512	354.492	85.1059	354.492	84.4234	354.492	84.5568	354.492	83.8052	354.492	83.8975	354.492	83.117	354.492	83.1462	354.492	82.4092	354.492	82.3478	354.492	81.7756	354.492	81.5898	354.492	81.3442	354.492	81.0062	354.492	81.2207	354.492	80.7365	354.492	81.4085	354.492	80.8355	354.492	81.7967	354.492	81.2227	354.492	82.232	354.492	81.7382	354.492	82.5883	354.492	82.2317	354.492	82.7881	354.492	82.6022	354.492	82.7948
366.211	86.5231	366.211	86.423	366.211	86.5317	366.211	86.2275	366.211	86.4494	366.211	85.93	366.211	86.2738	366.211	85.5218	366.211	86	366.211	84.9935	366.211	85.6218	366.211	84.3387	366.211	85.1333	366.211	83.5604	366.211	84.5324	366.211	82.6837	366.211	83.8273	366.211	81.7763	366.211	83.0465	366.211	80.9703	366.211	82.2538	366.211	80.4486	366.211	81.5586	366.211	80.3479	366.211	81.0989	366.211	80.639	366.211	80.9718	366.211	81.1463	366.211	81.1574	366.211	81.6767	366.211	81.5275	366.211	82.0986	366.211	81.9275	366.211	82.3441	366.211	82.2385	366.211	82.3888
377.93	86.6075	377.93	86.5499	377.93	86.5864	377.93	86.4126	377.93	86.4844	377.93	86.191	377.93	86.2968	377.93	85.8766	377.93	86.0171	377.93	85.4575	377.93	85.6382	377.93	84.9201	377.93	85.1542	377.93	84.2546	377.93	84.5646	377.93	83.4645	377.93	83.8816	377.93	82.5855	377.93	83.141	377.93	81.7143	377.93	82.4172	377.93	81.0291	377.93	81.8284	377.93	80.7363	377.93	81.5064	377.93	80.9143	377.93	81.5187	377.93	81.426	377.93	81.8103	377.93	82.0383	377.93	82.2374	377.93	82.5672	377.93	82.65	377.93	82.9125	377.93	82.9381	377.93	83.036
392.578	85.7301	392.578	85.7064	392.578	85.6848	392.578	85.6124	392.578	85.5697	392.578	85.4448	392.578	85.3819	392.578	85.1963	392.578	85.1161	392.578	84.8558	392.578	84.7644	392.578	84.4089	392.578	84.3176	392.578	83.8407	392.578	83.7681	392.578	83.1431	392.578	83.1171	392.578	82.3295	392.578	82.3861	392.578	81.4597	392.578	81.635	392.578	80.6716	392.578	80.9783	392.578	80.1748	392.578	80.5704	392.578	80.1335	392.578	80.5236	392.578	80.5082	392.578	80.8104	392.578	81.0813	392.578	81.2737	392.578	81.6278	392.578	81.7311	392.578	82.0054	392.578	82.0483	392.578	82.1495
407.227	85.7553	407.227	85.6833	407.227	85.7361	407.227	85.5203	407.227	85.6244	407.227	85.2653	407.227	85.4171	407.227	84.9152	407.227	85.1082	407.227	84.4645	407.227	84.6884	407.227	83.9057	407.227	84.1458	407.227	83.2337	407.227	83.4694	407.227	82.4537	407.227	82.6595	407.227	81.5982	407.227	81.7478	407.227	80.7552	407.227	80.8326	407.227	80.09	407.227	80.1117	407.227	79.8066	407.227	79.8308	407.227	80.0033	407.227	80.0878	407.227	80.5658	407.227	80.714	407.227	81.2607	407.227	81.4311	407.227	81.8859	407.227	82.0295	407.227	82.3187	407.227	82.3995	407.227	82.4977
421.875	85.4507	421.875	85.3845	421.875	85.4593	421.875	85.2594	421.875	85.4097	421.875	85.0722	421.875	85.2993	421.875	84.815	421.875	85.1203	421.875	84.4727	421.875	84.8582	421.875	84.0224	421.875	84.491	421.875	83.4353	421.875	83.9911	421.875	82.6837	421.875	83.3301	421.875	81.7552	421.875	82.488	421.875	80.6852	421.875	81.4718	421.875	79.6157	421.875	80.3559	421.875	78.8455	421.875	79.3436	421.875	78.6971	421.875	78.7686	421.875	79.1687	421.875	78.8585	421.875	79.9125	421.875	79.456	421.875	80.5812	421.875	80.1871	421.875	80.9841	421.875	80.765	421.875	81.0476
436.523	85.1659	436.523	85.1189	436.523	85.1165	436.523	84.9728	436.523	84.9788	436.523	84.7299	436.523	84.7642	436.523	84.3954	436.523	84.4833	436.523	83.975	436.523	84.1405	436.523	83.4715	436.523	83.7303	436.523	82.8843	436.523	83.2362	436.523	82.2114	436.523	82.6354	436.523	81.4585	436.523	81.9091	436.523	80.656	436.523	81.0613	436.523	79.8854	436.523	80.1499	436.523	79.2952	436.523	79.3269	436.523	79.0527	436.523	78.8306	436.523	79.212	436.523	78.8341	436.523	79.6382	436.523	79.2541	436.523	80.1053	436.523	79.8177	436.523	80.4257	436.523	80.2765	436.523	80.4932
451.172	86.2507	451.172	86.1734	451.172	86.2037	451.172	85.9758	451.172	86.0324	451.172	85.6634	451.172	85.7412	451.172	85.2415	451.172	85.3392	451.172	84.7123	451.172	84.8388	451.172	84.0747	451.172	84.254	451.172	83.3262	451.172	83.599	451.172	82.4691	451.172	82.8885	451.172	81.5258	451.172	82.1422	451.172	80.5633	451.172	81.3944	451.172	79.7216	451.172	80.707	451.172	79.1985	451.172	80.1736	451.172	79.1315	451.172	79.8925	451.172	79.4596	451.172	79.903	451.172	79.9672	451.172	80.1401	451.172	80.4418	451.172	80.4651	451.172	80.7536	451.172	80.7359	451.172	80.8499
465.82	85.8989	465.82	85.8067	465.82	85.901	465.82	85.6272	465.82	85.8086	465.82	85.3596	465.82	85.616	465.82	84.9981	465.82	85.3157	465.82	84.5307	465.82	84.8981	465.82	83.9401	465.82	84.3515	465.82	83.2087	465.82	83.6644	465.82	82.3297	465.82	82.8316	465.82	81.3311	465.82	81.8686	465.82	80.3193	465.82	80.8393	465.82	79.5231	465.82	79.898	465.82	79.2312	465.82	79.2983	465.82	79.5398	465.82	79.2561	465.82	80.2254	465.82	79.7302	465.82	80.969	465.82	80.4519	465.82	81.556	465.82	81.1524	465.82	81.8857	465.82	81.6686	465.82	81.9231
483.398	85.2072	483.398	85.1734	483.398	85.1575	483.398	85.0491	483.398	85.0316	483.398	84.8291	483.398	84.8341	483.398	84.5081	483.398	84.5618	483.398	84.0776	483.398	84.2006	483.398	83.5229	483.398	83.7253	483.398	82.8213	483.398	83.1026	483.398	81.9456	483.398	82.2986	483.398	80.8756	483.398	81.293	483.398	79.6314	483.398	80.1132	483.398	78.3532	483.398	78.9074	483.398	77.4102	483.398	78.0314	483.398	77.2792	483.398	77.9062	483.398	77.9878	483.398	78.532	483.398	79.0447	483.398	79.4596	483.398	80.0033	483.398	80.2794	483.398	80.6531	483.398	80.7908	483.398	80.921
500.977	85.1784	500.977	85.1085	500.977	85.1733	500.977	84.9661	500.977	85.0918	500.977	84.7507	500.977	84.9345	500.977	84.4534	500.977	84.7003	500.977	84.0527	500.977	84.3808	500.977	83.5149	500.977	83.9549	500.977	82.7972	500.977	83.3884	500.977	81.8551	500.977	82.6371	500.977	80.6593	500.977	81.6565	500.977	79.2459	500.977	80.424	500.977	77.8418	500.977	78.9993	500.977	77.0074	500.977	77.6588	500.977	77.2614	500.977	76.9883	500.977	78.3088	500.977	77.3904	500.977	79.4695	500.977	78.4675	500.977	80.3509	500.977	79.5888	500.977	80.8186	500.977	80.4188	500.977	80.8401
518.555	85.4965	518.555	85.4486	518.555	85.4358	518.555	85.2969	518.555	85.275	518.555	85.0562	518.555	85.0342	518.555	84.7446	518.555	84.7388	518.555	84.3722	518.555	84.4079	518.555	83.9288	518.555	84.0415	518.555	83.3778	518.555	83.6123	518.555	82.6572	518.555	83.0688	518.555	81.6915	518.555	82.3486	518.555	80.4202	518.555	81.401	518.555	78.8811	518.555	80.2319	518.555	77.44	518.555	79.0049	518.555	76.9677	518.555	78.1734	518.555	77.8607	518.555	78.2609	518.555	79.293	518.555	79.1533	518.555	80.5	518.555	80.2289	518.555	81.2148	518.555	81.037	518.555	81.3881
536.133	85.6498	536.133	85.5543	536.133	85.6178	536.133	85.3453	536.133	85.4528	536.133	85.0426	536.133	85.1565	536.133	84.6644	536.133	84.735	536.133	84.216	536.133	84.1946	536.133	83.6789	536.133	83.5351	536.133	83.0055	536.133	82.7449	536.133	82.1224	536.133	81.7979	536.133	80.9417	536.133	80.6602	536.133	79.3899	536.133	79.3227	536.133	77.5203	536.133	77.8981	536.133	75.884	536.133	76.8117	536.133	75.7336	536.133	76.7426	536.133	77.184	536.133	77.7548	536.133	78.9373	536.133	79.1368	536.133	80.2878	536.133	80.3194	536.133	81.0892	536.133	81.0785	536.133	81.3448
553.711	84.917	553.711	84.8301	553.711	84.9109	553.711	84.6562	553.711	84.8227	553.711	84.4131	553.711	84.6764	553.711	84.1164	553.711	84.4932	553.711	83.764	553.711	84.2716	553.711	83.3259	553.711	83.9739	553.711	82.743	553.711	83.528	553.711	81.935	553.711	82.8386	553.711	80.8126	553.711	81.7955	553.711	79.3022	553.711	80.2759	553.711	77.4329	553.711	78.1649	553.711	75.6328	553.711	75.5418	553.711	75.0281	553.711	73.558	553.711	76.0577	553.711	74.2801	553.711	77.601	553.711	76.4114	553.711	78.8389	553.711	78.1817	553.711	79.5521	553.711	79.2651	553.711	79.7032
574.219	84.09	574.219	83.9303	574.219	84.1135	574.219	83.6814	574.219	83.9998	574.219	83.4291	574.219	83.7904	574.219	83.2619	574.219	83.5551	574.219	83.2071	574.219	83.3581	574.219	83.1886	574.219	83.2077	574.219	83.053	574.219	83.0289	574.219	82.6245	574.219	82.6837	574.219	81.7274	574.219	82.0099	574.219	80.1674	574.219	80.8403	574.219	77.6972	574.219	79.0086	574.219	74.1704	574.219	76.4491	574.219	71.5976	574.219	73.954	574.219	73.8928	574.219	74.1406	574.219	76.9024	574.219	76.4291	574.219	78.8369	574.219	78.419	574.219	79.8378	574.219	79.6198	574.219	80.0797
594.727	85.9764	594.727	85.7555	594.727	85.9177	594.727	85.2593	594.727	85.593	594.727	84.5259	594.727	85.0418	594.727	83.6666	594.727	84.3559	594.727	82.9006	594.727	83.7056	594.727	82.4761	594.727	83.2945	594.727	82.4274	594.727	83.1951	594.727	82.4795	594.727	83.2365	594.727	82.2584	594.727	83.117	594.727	81.4512	594.727	82.5521	594.727	79.7966	594.727	81.293	594.727	77.13	594.727	79.0829	594.727	74.4305	594.727	75.8207	594.727	75.3801	594.727	73.5762	594.727	78.285	594.727	75.9114	594.727	80.3685	594.727	78.8565	594.727	81.4048	594.727	80.6946	594.727	81.5072
615.234	87.5412	615.234	87.3743	615.234	87.504	615.234	87.0167	615.234	87.265	615.234	86.503	615.234	86.8454	615.234	85.8989	615.234	86.2963	615.234	85.3015	615.234	85.7069	615.234	84.8033	615.234	85.1871	615.234	84.4187	615.234	84.8005	615.234	84.0343	615.234	84.4898	615.234	83.4403	615.234	84.0757	615.234	82.3889	615.234	83.3244	615.234	80.6146	615.234	81.996	615.234	77.8785	615.234	79.8755	615.234	74.7457	615.234	77.0558	615.234	74.9137	615.234	75.4506	615.234	77.8409	615.234	77.2094	615.234	80.1153	615.234	79.564	615.234	81.3371	615.234	81.0613	615.234	81.6359
638.672	87.9213	638.672	87.7328	638.672	87.8493	638.672	87.2798	638.672	87.5256	638.672	86.5743	638.672	86.9646	638.672	85.6751	638.672	86.2021	638.672	84.7329	638.672	85.3295	638.672	83.9962	638.672	84.5255	638.672	83.6493	638.672	84.0015	638.672	83.575	638.672	83.7992	638.672	83.4062	638.672	83.6749	638.672	82.7516	638.672	83.2551	638.672	81.2432	638.672	82.1935	638.672	78.4132	638.672	80.177	638.672	73.8374	638.672	77.0537	638.672	72.7253	638.672	74.7089	638.672	77.339	638.672	76.9266	638.672	80.427	638.672	79.8794	638.672	81.9655	638.672	81.6686	638.672	82.3398
659.18	86.9176	659.18	86.7166	659.18	86.887	659.18	86.2859	659.18	86.6252	659.18	85.6378	659.18	86.141	659.18	84.8211	659.18	85.4736	659.18	83.9607	659.18	84.7231	659.18	83.2613	659.18	84.0602	659.18	82.8817	659.18	83.6431	659.18	82.7371	659.18	83.4555	659.18	82.5141	659.18	83.2674	659.18	81.8559	659.18	82.7683	659.18	80.4343	659.18	81.6588	659.18	77.8903	659.18	79.6181	659.18	73.9734	659.18	76.2629	659.18	71.7077	659.18	72.3115	659.18	75.0129	659.18	73.6193	659.18	77.9995	659.18	77.1128	659.18	79.5652	659.18	79.1843	659.18	79.9427
682.617	86.7976	682.617	86.6267	682.617	86.7264	682.617	86.2086	682.617	86.4128	682.617	85.5388	682.617	85.8536	682.617	84.637	682.617	85.0589	682.617	83.5968	682.617	84.0884	682.617	82.6447	682.617	83.1103	682.617	82.0773	682.617	82.4067	682.617	81.9541	682.617	82.1597	682.617	81.9388	682.617	82.1783	682.617	81.5694	682.617	82.0267	682.617	80.4542	682.617	81.2959	682.617	78.2066	682.617	79.635	682.617	74.3909	682.617	76.685	682.617	70.9102	682.617	72.8934	682.617	74.0429	682.617	73.4336	682.617	77.4798	682.617	76.8629	682.617	79.29	682.617	79.0112	682.617	79.7707
706.055	86.8686	706.055	86.6855	706.055	86.8078	706.055	86.2374	706.055	86.4978	706.055	85.483	706.055	85.9071	706.055	84.3799	706.055	84.9912	706.055	82.9467	706.055	83.732	706.055	81.429	706.055	82.2485	706.055	80.478	706.055	80.9895	706.055	80.5677	706.055	80.5843	706.055	81.1145	706.055	80.9271	706.055	81.2515	706.055	81.2055	706.055	80.4453	706.055	80.7672	706.055	78.2297	706.055	79.158	706.055	73.7095	706.055	75.7497	706.055	67.6582	706.055	70.0002	706.055	73.3885	706.055	71.783	706.055	77.7192	706.055	76.766	706.055	79.7208	706.055	79.3095	706.055	80.197
732.422	86.4108	732.422	86.3496	732.422	86.3458	732.422	86.1518	732.422	86.1495	732.422	85.789	732.422	85.8006	732.422	85.2142	732.422	85.2593	732.422	84.373	732.422	84.4742	732.422	83.2437	732.422	83.4156	732.422	81.9356	732.422	82.1591	732.422	80.8251	732.422	81.0214	732.422	80.3718	732.422	80.4898	732.422	80.4209	732.422	80.5911	732.422	80.2428	732.422	80.6864	732.422	79.1645	732.422	80.093	732.422	76.5806	732.422	78.2648	732.422	71.6924	732.422	74.5464	732.422	68.7392	732.422	69.5197	732.422	73.6212	732.422	72.1818	732.422	76.4449	732.422	75.7928	732.422	77.095
758.789	87.4414	758.789	87.2908	758.789	87.3836	758.789	86.9269	758.789	87.1194	758.789	86.3438	758.789	86.6405	758.789	85.5327	758.789	85.9243	758.789	84.499	758.789	84.9489	758.789	83.3283	758.789	83.7453	758.789	82.2925	758.789	82.5006	758.789	81.7773	758.789	81.6139	758.789	81.8009	758.789	81.3628	758.789	81.8497	758.789	81.4263	758.789	81.3418	758.789	81.1766	758.789	79.8172	758.789	80.1114	758.789	76.8093	758.789	77.8557	758.789	72.5467	758.789	74.424	758.789	73.1586	758.789	73.1109	758.789	76.8387	758.789	76.0056	758.789	78.8721	758.789	78.3905	758.789	79.3337
785.156	87.5264	785.156	87.3852	785.156	87.4745	785.156	87.0468	785.156	87.234	785.156	86.4979	785.156	86.8107	785.156	85.7151	785.156	86.1967	785.156	84.6845	785.156	85.3571	785.156	83.4545	785.156	84.2514	785.156	82.2302	785.156	82.9288	785.156	81.4118	785.156	81.6999	785.156	81.2514	785.156	81.1115	785.156	81.3895	785.156	81.2347	785.156	81.1484	785.156	81.3656	785.156	79.9286	785.156	80.7516	785.156	77.0776	785.156	78.7868	785.156	71.6854	785.156	74.6334	785.156	70.4418	785.156	68.9429	785.156	75.6326	785.156	73.2932	785.156	78.1789	785.156	77.1942	785.156	78.6325
811.523	87.8745	811.523	87.7185	811.523	87.8097	811.523	87.3401	811.523	87.5322	811.523	86.7388	811.523	87.0548	811.523	85.9038	811.523	86.3866	811.523	84.809	811.523	85.5195	811.523	83.4459	811.523	84.4278	811.523	81.9485	811.523	83.1187	811.523	80.7946	811.523	81.7729	811.523	80.5512	811.523	80.8555	811.523	80.9336	811.523	80.6751	811.523	81.0632	811.523	80.7601	811.523	80.2873	811.523	80.3367	811.523	78.1621	811.523	78.8231	811.523	74.56	811.523	75.7847	811.523	72.8092	811.523	72.1808	811.523	75.6262	811.523	73.6471	811.523	77.6952	811.523	76.6757	811.523	78.0358
840.82	87.5703	840.82	87.3509	840.82	87.557	840.82	86.9159	840.82	87.3152	840.82	86.2873	840.82	86.8668	840.82	85.4716	840.82	86.2241	840.82	84.4532	840.82	85.3636	840.82	83.215	840.82	84.2416	840.82	81.8066	840.82	82.8647	840.82	80.4734	840.82	81.4166	840.82	79.644	840.82	80.3512	840.82	79.3849	840.82	80.0328	840.82	79.0881	840.82	80.0892	840.82	78.0513	840.82	79.7275	840.82	75.8534	840.82	78.2692	840.82	73.0673	840.82	75.163	840.82	73.3476	840.82	71.6496	840.82	76.0668	840.82	73.9269	840.82	77.8768	840.82	77.007	840.82	78.2428
870.117	87.341	870.117	87.2087	870.117	87.2446	870.117	86.8389	870.117	86.9261	870.117	86.2185	870.117	86.3965	870.117	85.3332	870.117	85.6787	870.117	84.1757	870.117	84.7995	870.117	82.7745	870.117	83.7667	870.117	81.2671	870.117	82.579	870.117	79.9851	870.117	81.3208	870.117	79.2798	870.117	80.2579	870.117	79.0093	870.117	79.644	870.117	78.5418	870.117	79.2607	870.117	77.1811	870.117	78.4755	870.117	74.1517	870.117	76.6579	870.117	69.0901	870.117	73.5859	870.117	70.9459	870.117	72.1162	870.117	75.6651	870.117	75.0121	870.117	77.9887	870.117	77.5358	870.117	78.5257
902.344	87.5525	902.344	87.3237	902.344	87.5186	902.344	86.8698	902.344	87.2061	902.344	86.2322	902.344	86.6311	902.344	85.4317	902.344	85.8356	902.344	84.4441	902.344	84.8541	902.344	83.2069	902.344	83.6783	902.344	81.7032	902.344	82.2861	902.344	80.1754	902.344	80.783	902.344	79.2654	902.344	79.5964	902.344	79.21	902.344	79.199	902.344	79.1428	902.344	79.2376	902.344	78.0284	902.344	78.7626	902.344	74.8646	902.344	76.8958	902.344	67.8406	902.344	72.6572	902.344	69.68	902.344	68.8629	902.344	75.6677	902.344	74.1305	902.344	78.2175	902.344	77.5588	902.344	78.7631
931.641	87.5502	931.641	87.365	931.641	87.4493	931.641	86.8838	931.641	87.0838	931.641	86.1117	931.641	86.4696	931.641	85.0589	931.641	85.6001	931.641	83.7321	931.641	84.4511	931.641	82.1573	931.641	83.0201	931.641	80.4956	931.641	81.4188	931.641	79.2658	931.641	80.0571	931.641	79.1077	931.641	79.6085	931.641	79.7268	931.641	80.0775	931.641	80.1482	931.641	80.5372	931.641	79.6132	931.641	80.132	931.641	77.4268	931.641	78.2372	931.641	72.0572	931.641	73.9599	931.641	62.2959	931.641	67.0533	931.641	72.569	931.641	71.5808	931.641	76.352	931.641	75.7264	931.641	77.1276
966.797	87.2922	966.797	87.1016	966.797	87.2218	966.797	86.682	966.797	86.8726	966.797	86.0623	966.797	86.2519	966.797	85.241	966.797	85.3979	966.797	84.1643	966.797	84.3548	966.797	82.7427	966.797	83.1113	966.797	80.9298	966.797	81.5769	966.797	78.9542	966.797	79.7361	966.797	77.7319	966.797	78.1024	966.797	78.017	966.797	77.7229	966.797	78.7341	966.797	78.2584	966.797	78.5531	966.797	78.2604	966.797	76.6272	966.797	76.7615	966.797	71.6101	966.797	72.7294	966.797	63.5201	966.797	65.034	966.797	71.8318	966.797	70.4078	966.797	75.5683	966.797	74.9319	966.797	76.3807
999.023	86.9481	999.023	86.7712	999.023	86.8634	999.023	86.3469	999.023	86.5222	999.023	85.7088	999.023	85.9473	999.023	84.8973	999.023	85.1675	999.023	83.9109	999.023	84.1847	999.023	82.6475	999.023	82.9403	999.023	80.9356	999.023	81.3331	999.023	78.822	999.023	79.3491	999.023	77.3593	999.023	77.4938	999.023	77.8734	999.023	77.1195	999.023	78.9749	999.023	78.1525	999.023	79.0547	999.023	78.8028	999.023	77.3605	999.023	77.9273	999.023	72.7115	999.023	74.4543	999.023	63.6023	999.023	65.08	999.023	72.1189	999.023	70.2564	999.023	76.3854	999.023	75.8698	999.023	77.4309
1,034.18	85.8832	1,034.18	85.6608	1,034.18	85.8156	1,034.18	85.1928	1,034.18	85.4525	1,034.18	84.548	1,034.18	84.8255	1,034.18	83.7826	1,034.18	83.9832	1,034.18	82.8757	1,034.18	82.9555	1,034.18	81.6822	1,034.18	81.697	1,034.18	79.9549	1,034.18	80.0269	1,034.18	77.4719	1,034.18	77.6653	1,034.18	74.6931	1,034.18	74.6755	1,034.18	74.1769	1,034.18	73.1886	1,034.18	75.8589	1,034.18	74.8262	1,034.18	76.7354	1,034.18	76.423	1,034.18	75.7423	1,034.18	76.4014	1,034.18	72.0634	1,034.18	73.8925	1,034.18	64.7645	1,034.18	66.5155	1,034.18	69.7864	1,034.18	67.9395	1,034.18	74.3479	1,034.18	74.0361	1,034.18	75.613
1,072.27	85.6574	1,072.27	85.4073	1,072.27	85.5065	1,072.27	84.7665	1,072.27	85.0039	1,072.27	83.8442	1,072.27	84.2317	1,072.27	82.852	1,072.27	83.2901	1,072.27	81.9612	1,072.27	82.282	1,072.27	81.0727	1,072.27	81.2603	1,072.27	79.8103	1,072.27	80.1272	1,072.27	77.7409	1,072.27	78.5995	1,072.27	74.7438	1,072.27	76.333	1,072.27	72.5813	1,072.27	73.4912	1,072.27	73.6681	1,072.27	72.4714	1,072.27	74.8496	1,072.27	73.9611	1,072.27	74.0993	1,072.27	74.5179	1,072.27	70.3092	1,072.27	72.4381	1,072.27	62.9401	1,072.27	64.9299	1,072.27	70.0238	1,072.27	65.2318	1,072.27	74.141	1,072.27	72.7105	1,072.27	74.9008
1,110.35	85.0936	1,110.35	84.8358	1,110.35	85.0237	1,110.35	84.2641	1,110.35	84.6242	1,110.35	83.407	1,110.35	83.9125	1,110.35	82.3378	1,110.35	82.9309	1,110.35	81.1736	1,110.35	81.7659	1,110.35	79.9641	1,110.35	80.5426	1,110.35	78.5621	1,110.35	79.3053	1,110.35	76.7015	1,110.35	77.8858	1,110.35	74.3153	1,110.35	76.0169	1,110.35	72.3564	1,110.35	73.8631	1,110.35	72.6346	1,110.35	72.8052	1,110.35	73.7354	1,110.35	73.2832	1,110.35	73.3736	1,110.35	73.2252	1,110.35	69.9864	1,110.35	71.1043	1,110.35	60.0379	1,110.35	64.9281	1,110.35	67.6042	1,110.35	58.3077	1,110.35	71.9151	1,110.35	68.6567	1,110.35	72.0109
1,148.44	85.5058	1,148.44	85.2511	1,148.44	85.3915	1,148.44	84.6096	1,148.44	84.9488	1,148.44	83.6205	1,148.44	84.2218	1,148.44	82.4072	1,148.44	83.268	1,148.44	81.174	1,148.44	82.1711	1,148.44	80.0841	1,148.44	81.0165	1,148.44	79.0441	1,148.44	79.8511	1,148.44	77.7437	1,148.44	78.6375	1,148.44	76.0001	1,148.44	77.2131	1,148.44	74.3548	1,148.44	75.5073	1,148.44	74.0993	1,148.44	74.2239	1,148.44	74.5374	1,148.44	74.1863	1,148.44	73.6848	1,148.44	74.0979	1,148.44	69.8846	1,148.44	72.1728	1,148.44	55.7977	1,148.44	66.1123	1,148.44	65.4993	1,148.44	55.4599	1,148.44	70.9015	1,148.44	68.582	1,148.44	71.5896
1,189.45	85.9302	1,189.45	85.6394	1,189.45	85.8584	1,189.45	85.0066	1,189.45	85.4416	1,189.45	84.0916	1,189.45	84.7235	1,189.45	82.9744	1,189.45	83.7658	1,189.45	81.7465	1,189.45	82.6438	1,189.45	80.4993	1,189.45	81.4269	1,189.45	79.2053	1,189.45	80.1297	1,189.45	77.5966	1,189.45	78.6504	1,189.45	75.4528	1,189.45	76.8198	1,189.45	73.7924	1,189.45	74.8486	1,189.45	74.4395	1,189.45	74.2362	1,189.45	75.563	1,189.45	75.4957	1,189.45	75.219	1,189.45	76.3245	1,189.45	72.4469	1,189.45	75.2084	1,189.45	64.4511	1,189.45	70.8594	1,189.45	61.8065	1,189.45	60.0647	1,189.45	69.7853	1,189.45	67.6834	1,189.45	71.0134
1,230.47	85.9062	1,230.47	85.623	1,230.47	85.7594	1,230.47	84.9202	1,230.47	85.2383	1,230.47	83.9035	1,230.47	84.442	1,230.47	82.7788	1,230.47	83.5026	1,230.47	81.7612	1,230.47	82.5552	1,230.47	80.868	1,230.47	81.6261	1,230.47	79.8025	1,230.47	80.5354	1,230.47	78.0653	1,230.47	78.9909	1,230.47	75.143	1,230.47	76.7793	1,230.47	71.7825	1,230.47	74.1749	1,230.47	72.6991	1,230.47	73.3075	1,230.47	75.1094	1,230.47	75.1415	1,230.47	75.5369	1,230.47	76.3799	1,230.47	73.2497	1,230.47	75.2799	1,230.47	65.8292	1,230.47	70.5043	1,230.47	64.0224	1,230.47	63.3253	1,230.47	71.4974	1,230.47	70.4804	1,230.47	72.9344
1,274.41	86.0496	1,274.41	85.759	1,274.41	85.8997	1,274.41	85.027	1,274.41	85.2944	1,274.41	83.8449	1,274.41	84.2119	1,274.41	82.2449	1,274.41	82.6536	1,274.41	80.4702	1,274.41	80.7761	1,274.41	79.1533	1,274.41	79.1176	1,274.41	78.6729	1,274.41	78.2491	1,274.41	78.3006	1,274.41	77.7971	1,274.41	76.9637	1,274.41	76.8852	1,274.41	73.879	1,274.41	74.9142	1,274.41	70.4364	1,274.41	72.1797	1,274.41	72.6338	1,274.41	72.3862	1,274.41	74.6756	1,274.41	74.3614	1,274.41	73.5271	1,274.41	73.8647	1,274.41	66.9067	1,274.41	68.9702	1,274.41	63.7084	1,274.41	58.0697	1,274.41	72.1897	1,274.41	70.6362	1,274.41	73.6139
1,318.36	85.2783	1,318.36	85.0806	1,318.36	85.1379	1,318.36	84.587	1,318.36	84.6378	1,318.36	83.8167	1,318.36	83.7926	1,318.36	82.725	1,318.36	82.6392	1,318.36	81.2707	1,318.36	81.2327	1,318.36	79.6538	1,318.36	79.7023	1,318.36	78.4314	1,318.36	78.2848	1,318.36	77.8066	1,318.36	77.1198	1,318.36	76.9916	1,318.36	75.9073	1,318.36	75.1163	1,318.36	74.1055	1,318.36	72.4606	1,318.36	71.9186	1,318.36	71.9551	1,318.36	71.6259	1,318.36	73.1142	1,318.36	72.8611	1,318.36	72.362	1,318.36	72.6514	1,318.36	67.1993	1,318.36	69.4216	1,318.36	51.6132	1,318.36	56.668	1,318.36	68.0212	1,318.36	64.6298	1,318.36	69.5937
1,365.23	84.7034	1,365.23	84.5033	1,365.23	84.5224	1,365.23	83.9641	1,365.23	83.9539	1,365.23	83.1219	1,365.23	83.0552	1,365.23	81.984	1,365.23	81.9299	1,365.23	80.6023	1,365.23	80.6628	1,365.23	79.2069	1,365.23	79.307	1,365.23	78.1181	1,365.23	77.95	1,365.23	77.3072	1,365.23	76.6689	1,365.23	76.2549	1,365.23	75.3676	1,365.23	74.5419	1,365.23	73.7744	1,365.23	72.8172	1,365.23	71.7624	1,365.23	72.879	1,365.23	70.9031	1,365.23	73.697	1,365.23	72.5554	1,365.23	73.0626	1,365.23	73.4402	1,365.23	69.6695	1,365.23	71.2679	1,365.23	61.8554	1,365.23	62.648	1,365.23	65.007	1,365.23	63.2424	1,365.23	67.7042
1,415.04	84.7695	1,415.04	84.5274	1,415.04	84.6775	1,415.04	83.9568	1,415.04	84.2661	1,415.04	83.0732	1,415.04	83.5615	1,415.04	81.9146	1,415.04	82.5739	1,415.04	80.5842	1,415.04	81.2982	1,415.04	79.2132	1,415.04	79.7805	1,415.04	77.8498	1,415.04	78.214	1,415.04	76.5442	1,415.04	76.8464	1,415.04	75.3898	1,415.04	75.6491	1,415.04	74.1039	1,415.04	74.2858	1,415.04	72.6274	1,415.04	72.374	1,415.04	72.7308	1,415.04	70.6403	1,415.04	73.8629	1,415.04	71.7476	1,415.04	73.1381	1,415.04	73.0846	1,415.04	68.9562	1,415.04	71.3469	1,415.04	62.9857	1,415.04	63.5819	1,415.04	67.774	1,415.04	64.5207	1,415.04	69.0851
1,464.84	85.0639	1,464.84	84.7341	1,464.84	85.0158	1,464.84	84.1018	1,464.84	84.5725	1,464.84	83.2112	1,464.84	83.7867	1,464.84	82.0238	1,464.84	82.7354	1,464.84	80.5246	1,464.84	81.466	1,464.84	78.845	1,464.84	80.0122	1,464.84	77.2303	1,464.84	78.5051	1,464.84	75.9471	1,464.84	77.1508	1,464.84	75.0064	1,464.84	75.9467	1,464.84	73.7911	1,464.84	74.5851	1,464.84	71.9033	1,464.84	72.7336	1,464.84	71.4943	1,464.84	71.1567	1,464.84	72.9942	1,464.84	71.9565	1,464.84	72.6717	1,464.84	72.9914	1,464.84	68.2395	1,464.84	71.4745	1,464.84	59.571	1,464.84	64.7266	1,464.84	67.362	1,464.84	62.0513	1,464.84	68.2794
1,514.65	85.3072	1,514.65	85.0299	1,514.65	85.2016	1,514.65	84.4071	1,514.65	84.727	1,514.65	83.503	1,514.65	83.9019	1,514.65	82.3165	1,514.65	82.7693	1,514.65	80.812	1,514.65	81.4403	1,514.65	79.0872	1,514.65	80.0307	1,514.65	77.4324	1,514.65	78.6041	1,514.65	76.0374	1,514.65	77.2821	1,514.65	74.7267	1,514.65	76.1364	1,514.65	73.2553	1,514.65	74.7505	1,514.65	71.5454	1,514.65	72.6694	1,514.65	70.7755	1,514.65	71.2596	1,514.65	72.0988	1,514.65	72.4512	1,514.65	72.5095	1,514.65	73.4146	1,514.65	69.477	1,514.65	71.8945	1,514.65	60.0725	1,514.65	66.5083	1,514.65	65.8998	1,514.65	64.1703	1,514.65	68.0223
1,570.31	85.4114	1,570.31	85.2065	1,570.31	85.2027	1,570.31	84.6052	1,570.31	84.6102	1,570.31	83.6646	1,570.31	83.7128	1,570.31	82.4791	1,570.31	82.5839	1,570.31	81.1316	1,570.31	81.2491	1,570.31	79.6607	1,570.31	79.7568	1,570.31	78.1327	1,570.31	78.223	1,570.31	76.6309	1,570.31	76.7183	1,570.31	75.159	1,570.31	75.355	1,570.31	73.8028	1,570.31	74.2899	1,570.31	72.3254	1,570.31	73.0696	1,570.31	71.1242	1,570.31	71.5202	1,570.31	72.4357	1,570.31	71.896	1,570.31	73.2959	1,570.31	73.1565	1,570.31	70.6528	1,570.31	71.8412	1,570.31	63.4564	1,570.31	65.8843	1,570.31	66.4217	1,570.31	63.9759	1,570.31	68.1205
1,623.05	84.8366	1,623.05	84.6341	1,623.05	84.6277	1,623.05	84.0607	1,623.05	83.9797	1,623.05	83.1235	1,623.05	83.017	1,623.05	81.9368	1,623.05	81.92	1,623.05	80.6896	1,623.05	80.6558	1,623.05	79.3832	1,623.05	79.1168	1,623.05	77.9051	1,623.05	77.5436	1,623.05	76.358	1,623.05	76.165	1,623.05	74.9467	1,623.05	74.6749	1,623.05	73.7673	1,623.05	73.1509	1,623.05	72.7594	1,623.05	71.911	1,623.05	71.8687	1,623.05	70.3402	1,623.05	72.383	1,623.05	70.3146	1,623.05	73.1857	1,623.05	71.9005	1,623.05	71.0368	1,623.05	70.9659	1,623.05	64.2432	1,623.05	65.0181	1,623.05	66.0867	1,623.05	61.861	1,623.05	67.3678
1,681.64	84.4369	1,681.64	84.1491	1,681.64	84.2395	1,681.64	83.4298	1,681.64	83.6579	1,681.64	82.4605	1,681.64	82.8568	1,681.64	81.3982	1,681.64	81.9113	1,681.64	80.2039	1,681.64	80.7096	1,681.64	78.7361	1,681.64	79.157	1,681.64	77.0942	1,681.64	77.5888	1,681.64	75.572	1,681.64	76.4414	1,681.64	74.2932	1,681.64	75.1523	1,681.64	73.1291	1,681.64	73.2018	1,681.64	71.7272	1,681.64	71.477	1,681.64	70.8397	1,681.64	69.9622	1,681.64	72.1487	1,681.64	70.0901	1,681.64	72.9367	1,681.64	72.8079	1,681.64	70.5639	1,681.64	72.6615	1,681.64	64.4107	1,681.64	67.2589	1,681.64	67.5736	1,681.64	63.4757	1,681.64	68.9249
1,740.23	84.3833	1,740.23	84.1064	1,740.23	84.1961	1,740.23	83.2751	1,740.23	83.6646	1,740.23	82.1127	1,740.23	82.7809	1,740.23	81.0368	1,740.23	81.664	1,740.23	80.0171	1,740.23	80.5903	1,740.23	78.5952	1,740.23	79.472	1,740.23	76.9072	1,740.23	78.0923	1,740.23	75.5762	1,740.23	76.8449	1,740.23	74.2237	1,740.23	75.6682	1,740.23	72.6371	1,740.23	73.8913	1,740.23	71.345	1,740.23	72.4042	1,740.23	69.5376	1,740.23	71.2804	1,740.23	70.1724	1,740.23	69.6598	1,740.23	71.9291	1,740.23	71.7612	1,740.23	69.829	1,740.23	72.7184	1,740.23	62.4132	1,740.23	68.9008	1,740.23	66.1592	1,740.23	59.9945	1,740.23	67.0842
1,801.76	85.1018	1,801.76	84.8155	1,801.76	84.9571	1,801.76	84.1167	1,801.76	84.3918	1,801.76	83.1329	1,801.76	83.4384	1,801.76	82.0648	1,801.76	82.2356	1,801.76	80.9565	1,801.76	81.0068	1,801.76	79.5476	1,801.76	79.6472	1,801.76	77.6433	1,801.76	77.9378	1,801.76	76.0713	1,801.76	76.508	1,801.76	75.2688	1,801.76	75.7341	1,801.76	73.5941	1,801.76	74.3102	1,801.76	71.5832	1,801.76	72.4427	1,801.76	70.5025	1,801.76	71.3071	1,801.76	69.426	1,801.76	70.1047	1,801.76	71.387	1,801.76	70.9984	1,801.76	70.8351	1,801.76	71.9164	1,801.76	63.2544	1,801.76	68.9188	1,801.76	64.1352	1,801.76	63.8897	1,801.76	66.8593
1,866.21	85.228	1,866.21	84.9716	1,866.21	84.8862	1,866.21	84.1827	1,866.21	84.1844	1,866.21	83.2039	1,866.21	83.2303	1,866.21	82.2064	1,866.21	81.909	1,866.21	81.1404	1,866.21	80.4832	1,866.21	79.9175	1,866.21	79.3336	1,866.21	78.4078	1,866.21	77.8477	1,866.21	76.9907	1,866.21	75.6909	1,866.21	76.103	1,866.21	74.1068	1,866.21	74.7313	1,866.21	72.9082	1,866.21	72.8647	1,866.21	71.7508	1,866.21	71.7178	1,866.21	71.2608	1,866.21	70.5788	1,866.21	69.9167	1,866.21	71.2487	1,866.21	70.8744	1,866.21	71.2228	1,866.21	71.6625	1,866.21	67.0183	1,866.21	67.2727	1,866.21	66.8969	1,866.21	63.9	1,866.21	68.2731
1,930.66	83.4961	1,930.66	83.2693	1,930.66	83.3748	1,930.66	82.7015	1,930.66	82.908	1,930.66	81.7028	1,930.66	82.1749	1,930.66	80.4518	1,930.66	81.2325	1,930.66	79.5329	1,930.66	80.1302	1,930.66	78.8338	1,930.66	78.9598	1,930.66	77.5722	1,930.66	77.4052	1,930.66	75.8454	1,930.66	75.2746	1,930.66	74.6326	1,930.66	73.8863	1,930.66	73.6779	1,930.66	72.9273	1,930.66	72.3814	1,930.66	70.6084	1,930.66	71.6209	1,930.66	69.7883	1,930.66	71.4842	1,930.66	68.7381	1,930.66	72.1407	1,930.66	67.9221	1,930.66	71.3249	1,930.66	70.2686	1,930.66	65.1643	1,930.66	67.5354	1,930.66	66.3037	1,930.66	58.3511	1,930.66	66.2235
2,000.98	84.3008	2,000.98	84.1448	2,000.98	84.3374	2,000.98	83.7902	2,000.98	84.0985	2,000.98	82.9689	2,000.98	83.514	2,000.98	81.6372	2,000.98	82.7083	2,000.98	80.1036	2,000.98	81.6599	2,000.98	78.6088	2,000.98	80.3478	2,000.98	76.923	2,000.98	78.993	2,000.98	75.1701	2,000.98	77.4842	2,000.98	73.9388	2,000.98	75.9312	2,000.98	72.6085	2,000.98	74.4882	2,000.98	71.0467	2,000.98	72.2524	2,000.98	69.9144	2,000.98	71.5309	2,000.98	70.016	2,000.98	72.2674	2,000.98	72.3574	2,000.98	71.6464	2,000.98	72.1392	2,000.98	72.3323	2,000.98	65.4721	2,000.98	70.4274	2,000.98	64.5121	2,000.98	62.6335	2,000.98	66.2553
2,071.29	85.412	2,071.29	85.2274	2,071.29	85.3434	2,071.29	84.7862	2,071.29	85.0432	2,071.29	84.3251	2,071.29	84.419	2,071.29	83.5979	2,071.29	83.5331	2,071.29	82.2607	2,071.29	82.2959	2,071.29	80.6687	2,071.29	80.7045	2,071.29	78.8348	2,071.29	79.1553	2,071.29	76.4999	2,071.29	77.5383	2,071.29	74.7857	2,071.29	76.0464	2,071.29	73.4107	2,071.29	74.8449	2,071.29	71.8878	2,071.29	72.4811	2,071.29	71.4034	2,071.29	70.4904	2,071.29	69.3441	2,071.29	70.8349	2,071.29	70.6153	2,071.29	70.5284	2,071.29	71.669	2,071.29	72.0699	2,071.29	66.353	2,071.29	70.9079	2,071.29	57.1322	2,071.29	65.3123	2,071.29	65.2328
2,144.53	85.0414	2,144.53	84.8284	2,144.53	84.7319	2,144.53	84.4188	2,144.53	84.1109	2,144.53	84.1061	2,144.53	83.5395	2,144.53	83.3321	2,144.53	82.9556	2,144.53	82.0287	2,144.53	81.6661	2,144.53	80.943	2,144.53	79.8613	2,144.53	79.4742	2,144.53	78.7072	2,144.53	77.1165	2,144.53	76.8732	2,144.53	75.776	2,144.53	73.9642	2,144.53	74.6657	2,144.53	73.5059	2,144.53	72.758	2,144.53	72.7328	2,144.53	72.5662	2,144.53	71.039	2,144.53	70.6175	2,144.53	70.406	2,144.53	70.9878	2,144.53	69.3742	2,144.53	72.9406	2,144.53	71.841	2,144.53	70.4653	2,144.53	70.162	2,144.53	66.1636	2,144.53	64.3581	2,144.53	67.4079
2,217.77	83.846	2,217.77	83.4885	2,217.77	83.9854	2,217.77	83.112	2,217.77	83.7345	2,217.77	82.7794	2,217.77	83.2844	2,217.77	82.2066	2,217.77	82.8263	2,217.77	80.9453	2,217.77	81.8486	2,217.77	79.2713	2,217.77	80.1753	2,217.77	77.777	2,217.77	78.5986	2,217.77	76.258	2,217.77	77.0713	2,217.77	75.2025	2,217.77	74.8149	2,217.77	73.9252	2,217.77	73.4662	2,217.77	71.7372	2,217.77	71.7876	2,217.77	72.2998	2,217.77	68.1332	2,217.77	71.1596	2,217.77	69.414	2,217.77	71.0353	2,217.77	68.152	2,217.77	72.802	2,217.77	70.4023	2,217.77	68.9112	2,217.77	70.9938	2,217.77	66.6724	2,217.77	58.7201	2,217.77	65.567
2,296.88	84.5712	2,296.88	84.4968	2,296.88	84.6971	2,296.88	84.2819	2,296.88	84.6325	2,296.88	83.8928	2,296.88	84.2609	2,296.88	83.0967	2,296.88	83.7375	2,296.88	81.4759	2,296.88	82.8438	2,296.88	79.6901	2,296.88	81.413	2,296.88	78.1093	2,296.88	79.9089	2,296.88	75.4883	2,296.88	78.2434	2,296.88	72.9111	2,296.88	76.2029	2,296.88	72.4471	2,296.88	75.3401	2,296.88	70.6188	2,296.88	74.2453	2,296.88	70.5897	2,296.88	71.6389	2,296.88	70.914	2,296.88	71.7296	2,296.88	68.9712	2,296.88	71.4622	2,296.88	71.6513	2,296.88	71.8624	2,296.88	69.8853	2,296.88	71.9555	2,296.88	63.6259	2,296.88	67.5163	2,296.88	65.259
2,378.91	85.3641	2,378.91	85.4309	2,378.91	85.2615	2,378.91	85.1047	2,378.91	85.036	2,378.91	84.3923	2,378.91	84.557	2,378.91	83.5565	2,378.91	83.9337	2,378.91	82.3545	2,378.91	82.9134	2,378.91	80.7352	2,378.91	81.3743	2,378.91	79.3385	2,378.91	79.8941	2,378.91	77.4625	2,378.91	78.1254	2,378.91	74.9116	2,378.91	75.4552	2,378.91	74.1117	2,378.91	74.1327	2,378.91	71.229	2,378.91	73.7291	2,378.91	69.3893	2,378.91	71.6106	2,378.91	71.6459	2,378.91	70.3768	2,378.91	68.3635	2,378.91	69.3931	2,378.91	71.6381	2,378.91	71.025	2,378.91	69.4207	2,378.91	71.555	2,378.91	65.4141	2,378.91	65.2489	2,378.91	65.0182
2,460.94	84.5437	2,460.94	84.6628	2,460.94	84.4423	2,460.94	84.6766	2,460.94	84.4455	2,460.94	84.3361	2,460.94	84.2687	2,460.94	83.5978	2,460.94	83.6224	2,460.94	82.5908	2,460.94	82.5209	2,460.94	80.9215	2,460.94	80.8161	2,460.94	78.9718	2,460.94	78.7655	2,460.94	77.2661	2,460.94	77.1608	2,460.94	74.6469	2,460.94	75.0347	2,460.94	73.4804	2,460.94	72.5395	2,460.94	73.0878	2,460.94	71.918	2,460.94	70.4982	2,460.94	70.4427	2,460.94	72.0232	2,460.94	70.3205	2,460.94	70.5328	2,460.94	70.7804	2,460.94	71.498	2,460.94	70.6871	2,460.94	69.2824	2,460.94	70.8073	2,460.94	64.8653	2,460.94	67.09	2,460.94	66.9927
2,548.83	84.138	2,548.83	84.1894	2,548.83	84.2199	2,548.83	84.2774	2,548.83	84.4393	2,548.83	83.8739	2,548.83	84.3784	2,548.83	82.9266	2,548.83	83.6275	2,548.83	81.6765	2,548.83	82.5704	2,548.83	79.9243	2,548.83	81.0977	2,548.83	77.7286	2,548.83	78.9767	2,548.83	76.0982	2,548.83	77.221	2,548.83	74.1216	2,548.83	75.2451	2,548.83	72.1473	2,548.83	72.8532	2,548.83	72.0497	2,548.83	72.4538	2,548.83	70.6748	2,548.83	70.4943	2,548.83	71.4663	2,548.83	70.0983	2,548.83	71.0368	2,548.83	69.939	2,548.83	71.4279	2,548.83	69.7965	2,548.83	69.9561	2,548.83	70.6649	2,548.83	66.6402	2,548.83	65.3726	2,548.83	68.4062
2,639.65	83.9309	2,639.65	84.0465	2,639.65	84.0167	2,639.65	84.2738	2,639.65	84.3	2,639.65	84.2125	2,639.65	84.4888	2,639.65	83.4665	2,639.65	83.9396	2,639.65	82.1201	2,639.65	82.6295	2,639.65	80.3017	2,639.65	81.0298	2,639.65	78.0744	2,639.65	79.1419	2,639.65	76.2211	2,639.65	77.0803	2,639.65	74.0703	2,639.65	74.9279	2,639.65	71.6951	2,639.65	72.3643	2,639.65	71.2286	2,639.65	71.9022	2,639.65	68.8387	2,639.65	70.6689	2,639.65	70.3327	2,639.65	69.2885	2,639.65	70.4477	2,639.65	70.7014	2,639.65	70.5503	2,639.65	69.6553	2,639.65	69.1357	2,639.65	70.6859	2,639.65	63.1118	2,639.65	66.7057	2,639.65	66.4864
2,733.4	83.9278	2,733.4	84.136	2,733.4	84.0123	2,733.4	84.452	2,733.4	84.3009	2,733.4	84.4587	2,733.4	84.4126	2,733.4	83.638	2,733.4	83.8913	2,733.4	82.0875	2,733.4	82.5363	2,733.4	80.224	2,733.4	80.8228	2,733.4	78.0778	2,733.4	78.7471	2,733.4	76.184	2,733.4	76.4623	2,733.4	74.4684	2,733.4	74.723	2,733.4	72.4741	2,733.4	72.0024	2,733.4	71.7266	2,733.4	70.7304	2,733.4	69.7234	2,733.4	70.1932	2,733.4	69.0247	2,733.4	68.3738	2,733.4	70.4231	2,733.4	69.7195	2,733.4	71.3879	2,733.4	69.4446	2,733.4	70.1716	2,733.4	70.8731	2,733.4	64.7711	2,733.4	65.2779	2,733.4	65.5322
2,827.15	84.0966	2,827.15	84.3887	2,827.15	84.2055	2,827.15	84.6139	2,827.15	84.562	2,827.15	84.5121	2,827.15	84.6376	2,827.15	83.6538	2,827.15	84.1511	2,827.15	82.0606	2,827.15	82.8301	2,827.15	80.1894	2,827.15	81.0493	2,827.15	77.9275	2,827.15	78.9297	2,827.15	75.597	2,827.15	76.4425	2,827.15	73.428	2,827.15	74.612	2,827.15	70.9025	2,827.15	72.641	2,827.15	70.9868	2,827.15	70.6429	2,827.15	69.7414	2,827.15	70.9531	2,827.15	70.01	2,827.15	68.7596	2,827.15	69.999	2,827.15	70.3138	2,827.15	70.1373	2,827.15	70.6651	2,827.15	69.4504	2,827.15	70.3504	2,827.15	61.9491	2,827.15	67.042	2,827.15	63.8306
2,926.76	83.8733	2,926.76	84.2655	2,926.76	84.0746	2,926.76	84.5893	2,926.76	84.4856	2,926.76	84.4958	2,926.76	84.5021	2,926.76	83.6819	2,926.76	83.9598	2,926.76	82.1541	2,926.76	82.5713	2,926.76	80.385	2,926.76	80.6372	2,926.76	78.1551	2,926.76	78.5166	2,926.76	75.8163	2,926.76	76.2602	2,926.76	73.8623	2,926.76	74.2845	2,926.76	71.3187	2,926.76	72.1758	2,926.76	71.4353	2,926.76	70.1421	2,926.76	70.877	2,926.76	69.8327	2,926.76	69.0548	2,926.76	68.6953	2,926.76	70.8198	2,926.76	68.8307	2,926.76	70.9672	2,926.76	69.6869	2,926.76	70.4073	2,926.76	70.8221	2,926.76	63.9734	2,926.76	65.9177	2,926.76	62.5468
3,032.23	83.7504	3,032.23	84.2462	3,032.23	83.9026	3,032.23	84.6004	3,032.23	84.3939	3,032.23	84.5457	3,032.23	84.5247	3,032.23	83.6053	3,032.23	83.9617	3,032.23	81.7327	3,032.23	82.3553	3,032.23	79.6621	3,032.23	80.2672	3,032.23	77.4178	3,032.23	78.2815	3,032.23	74.9086	3,032.23	75.9324	3,032.23	73.2321	3,032.23	73.3367	3,032.23	70.8545	3,032.23	71.7973	3,032.23	69.0715	3,032.23	69.6142	3,032.23	69.8407	3,032.23	69.2745	3,032.23	69.748	3,032.23	69.2868	3,032.23	70.4898	3,032.23	69.2658	3,032.23	71.012	3,032.23	69.5657	3,032.23	70.4967	3,032.23	70.4639	3,032.23	63.1331	3,032.23	67.6557	3,032.23	64.4414
3,137.7	83.6234	3,137.7	84.2777	3,137.7	83.8664	3,137.7	84.8046	3,137.7	84.6398	3,137.7	84.5818	3,137.7	84.8503	3,137.7	83.6106	3,137.7	84.1075	3,137.7	82.0126	3,137.7	82.6907	3,137.7	79.8334	3,137.7	80.4969	3,137.7	77.4551	3,137.7	78.2006	3,137.7	75.0936	3,137.7	76.1132	3,137.7	72.8529	3,137.7	74.1451	3,137.7	71.0245	3,137.7	72.4139	3,137.7	68.9706	3,137.7	70.3683	3,137.7	68.2564	3,137.7	69.9736	3,137.7	68.2163	3,137.7	68.4076	3,137.7	68.8449	3,137.7	69.8362	3,137.7	69.7468	3,137.7	69.8785	3,137.7	70.9574	3,137.7	70.9741	3,137.7	65.7027	3,137.7	67.8224	3,137.7	63.2924
3,249.02	83.335	3,249.02	83.9857	3,249.02	83.7028	3,249.02	84.6887	3,249.02	84.6131	3,249.02	84.4329	3,249.02	84.6672	3,249.02	83.1988	3,249.02	83.7354	3,249.02	81.4788	3,249.02	82.146	3,249.02	79.4206	3,249.02	80.0076	3,249.02	77.2779	3,249.02	77.9817	3,249.02	74.9645	3,249.02	76.0523	3,249.02	72.9494	3,249.02	73.9963	3,249.02	71.2205	3,249.02	71.8468	3,249.02	70.0259	3,249.02	69.5392	3,249.02	69.2786	3,249.02	68.733	3,249.02	67.6392	3,249.02	68.0009	3,249.02	70.0281	3,249.02	67.7076	3,249.02	70.1525	3,249.02	68.8759	3,249.02	71.0935	3,249.02	70.399	3,249.02	64.0832	3,249.02	68.2679	3,249.02	64.5632
3,363.28	83.1498	3,363.28	83.5886	3,363.28	83.4274	3,363.28	84.1832	3,363.28	83.9988	3,363.28	84.0206	3,363.28	84.0993	3,363.28	82.8395	3,363.28	83.3298	3,363.28	81.0204	3,363.28	81.5407	3,363.28	79.1265	3,363.28	79.5528	3,363.28	77.0699	3,363.28	77.7453	3,363.28	74.9813	3,363.28	75.5889	3,363.28	73.3487	3,363.28	73.0974	3,363.28	71.1939	3,363.28	71.5334	3,363.28	68.8464	3,363.28	69.3037	3,363.28	69.2696	3,363.28	67.8302	3,363.28	68.8651	3,363.28	68.0837	3,363.28	69.9478	3,363.28	68.8076	3,363.28	69.8624	3,363.28	69.1475	3,363.28	71.0649	3,363.28	70.0015	3,363.28	65.0344	3,363.28	67.9433	3,363.28	64.2399
3,483.4	83.5281	3,483.4	83.8306	3,483.4	83.746	3,483.4	84.4964	3,483.4	84.3193	3,483.4	84.3154	3,483.4	84.6109	3,483.4	83.2584	3,483.4	83.5836	3,483.4	81.554	3,483.4	82.196	3,483.4	79.3582	3,483.4	80.4587	3,483.4	77.5087	3,483.4	78.4565	3,483.4	75.6498	3,483.4	76.652	3,483.4	73.4078	3,483.4	74.6634	3,483.4	72.3908	3,483.4	72.7441	3,483.4	69.2756	3,483.4	70.6273	3,483.4	68.6425	3,483.4	70.3585	3,483.4	67.7813	3,483.4	69.6477	3,483.4	70.3136	3,483.4	70.0773	3,483.4	69.9051	3,483.4	70.9091	3,483.4	70.6408	3,483.4	70.5838	3,483.4	63.7757	3,483.4	67.8929	3,483.4	61.2843
3,606.45	82.9081	3,606.45	83.5557	3,606.45	83.0348	3,606.45	84.2875	3,606.45	83.815	3,606.45	84.2501	3,606.45	83.8346	3,606.45	83.5312	3,606.45	83.0547	3,606.45	82.6024	3,606.45	81.8859	3,606.45	81.0514	3,606.45	80.1744	3,606.45	78.9956	3,606.45	78.5909	3,606.45	77.102	3,606.45	77.0684	3,606.45	75.1789	3,606.45	74.9594	3,606.45	72.9676	3,606.45	72.6376	3,606.45	70.086	3,606.45	70.416	3,606.45	69.1687	3,606.45	68.2978	3,606.45	68.5403	3,606.45	68.2678	3,606.45	70.3316	3,606.45	68.3794	3,606.45	71.6302	3,606.45	69.5001	3,606.45	72.2254	3,606.45	70.519	3,606.45	65.8734	3,606.45	68.0154	3,606.45	60.8428
3,732.42	82.3051	3,732.42	82.8949	3,732.42	82.4212	3,732.42	83.7527	3,732.42	83.0142	3,732.42	83.8152	3,732.42	83.1604	3,732.42	83.3602	3,732.42	82.6216	3,732.42	82.6519	3,732.42	81.8582	3,732.42	81.429	3,732.42	80.7924	3,732.42	79.6514	3,732.42	79.1673	3,732.42	77.4001	3,732.42	77.2869	3,732.42	75.0727	3,732.42	74.9813	3,732.42	73.6113	3,732.42	73.1859	3,732.42	71.6155	3,732.42	71.0869	3,732.42	70.1468	3,732.42	68.51	3,732.42	69.5865	3,732.42	67.7752	3,732.42	70.3896	3,732.42	68.0919	3,732.42	71.2046	3,732.42	69.6579	3,732.42	71.2655	3,732.42	70.7763	3,732.42	64.9194	3,732.42	68.6732	3,732.42	61.7871
3,864.26	82.6169	3,864.26	82.4702	3,864.26	82.2985	3,864.26	83.3598	3,864.26	81.9422	3,864.26	84.0094	3,864.26	82.1924	3,864.26	84.0124	3,864.26	81.9064	3,864.26	83.2071	3,864.26	81.6368	3,864.26	81.6202	3,864.26	80.8495	3,864.26	79.9807	3,864.26	79.1903	3,864.26	78.061	3,864.26	77.1249	3,864.26	75.1412	3,864.26	74.6395	3,864.26	73.1581	3,864.26	72.1567	3,864.26	70.7405	3,864.26	70.7363	3,864.26	69.1248	3,864.26	69.5707	3,864.26	68.1403	3,864.26	69.5714	3,864.26	70.7322	3,864.26	67.9744	3,864.26	70.6049	3,864.26	69.2356	3,864.26	71.4571	3,864.26	69.3029	3,864.26	63.5779	3,864.26	68.7107	3,864.26	59.2243
3,999.02	83.5749	3,999.02	83.224	3,999.02	82.9329	3,999.02	83.305	3,999.02	82.111	3,999.02	84.0531	3,999.02	81.9019	3,999.02	84.0885	3,999.02	82.0787	3,999.02	83.498	3,999.02	82.0131	3,999.02	81.8819	3,999.02	81.0968	3,999.02	79.2001	3,999.02	79.276	3,999.02	76.6208	3,999.02	77.0238	3,999.02	74.3517	3,999.02	74.6345	3,999.02	71.5819	3,999.02	72.1805	3,999.02	69.7746	3,999.02	69.8379	3,999.02	69.5891	3,999.02	67.6303	3,999.02	67.9863	3,999.02	68.5998	3,999.02	69.0623	3,999.02	67.5296	3,999.02	70.6581	3,999.02	68.5943	3,999.02	71.4057	3,999.02	68.7275	3,999.02	62.4008	3,999.02	69.4977	3,999.02	57.1275
4,139.65	84.1813	4,139.65	83.6691	4,139.65	83.7869	4,139.65	83.2956	4,139.65	82.5182	4,139.65	83.2762	4,139.65	82.1543	4,139.65	83.4926	4,139.65	82.6099	4,139.65	82.9834	4,139.65	82.3309	4,139.65	81.6488	4,139.65	81.0054	4,139.65	79.7661	4,139.65	78.9533	4,139.65	76.8343	4,139.65	76.182	4,139.65	73.5521	4,139.65	73.1786	4,139.65	71.8187	4,139.65	71.935	4,139.65	69.7718	4,139.65	69.1432	4,139.65	69.3397	4,139.65	65.9985	4,139.65	67.5118	4,139.65	67.6339	4,139.65	68.5911	4,139.65	66.2566	4,139.65	69.6113	4,139.65	67.8058	4,139.65	69.8137	4,139.65	68.2353	4,139.65	62.8228	4,139.65	67.0444	4,139.65	57.8936
4,286.13	85.0964	4,286.13	83.9321	4,286.13	84.6973	4,286.13	82.7704	4,286.13	83.5812	4,286.13	83.0071	4,286.13	83.2119	4,286.13	82.9602	4,286.13	83.3326	4,286.13	82.0042	4,286.13	82.9047	4,286.13	79.8447	4,286.13	81.4211	4,286.13	76.7935	4,286.13	78.7157	4,286.13	74.4548	4,286.13	75.9638	4,286.13	72.0101	4,286.13	73.4231	4,286.13	70.5639	4,286.13	69.5424	4,286.13	68.1485	4,286.13	69.646	4,286.13	66.8257	4,286.13	66.2191	4,286.13	67.7381	4,286.13	66.4271	4,286.13	68.4338	4,286.13	65.2171	4,286.13	69.2296	4,286.13	68.1757	4,286.13	69.6299	4,286.13	67.9192	4,286.13	57.2331	4,286.13	68.5506	4,286.13	53.7773
4,438.48	85.5096	4,438.48	84.2159	4,438.48	85.2544	4,438.48	82.6207	4,438.48	84.0345	4,438.48	82.2816	4,438.48	83.1442	4,438.48	82.4136	4,438.48	82.735	4,438.48	81.7607	4,438.48	81.7106	4,438.48	79.4382	4,438.48	79.5972	4,438.48	76.7806	4,438.48	76.6105	4,438.48	73.9997	4,438.48	73.3891	4,438.48	71.9756	4,438.48	69.968	4,438.48	69.0385	4,438.48	68.6909	4,438.48	66.0843	4,438.48	66.1919	4,438.48	65.8655	4,438.48	63.8257	4,438.48	64.511	4,438.48	64.9277	4,438.48	65.0278	4,438.48	64.7923	4,438.48	67.3309	4,438.48	65.8615	4,438.48	66.8258	4,438.48	66.3528	4,438.48	57.3316	4,438.48	65.2685	4,438.48	50.221
4,593.75	86.3511	4,593.75	85.0906	4,593.75	85.8736	4,593.75	83.283	4,593.75	84.1714	4,593.75	82.4069	4,593.75	83.5574	4,593.75	81.8013	4,593.75	83.1585	4,593.75	80.2252	4,593.75	81.5428	4,593.75	78.279	4,593.75	78.9933	4,593.75	75.5135	4,593.75	75.5902	4,593.75	72.2099	4,593.75	72.1716	4,593.75	68.8644	4,593.75	70.0715	4,593.75	67.6952	4,593.75	66.3895	4,593.75	65.6345	4,593.75	65.8035	4,593.75	64.0642	4,593.75	62.4268	4,593.75	65.6532	4,593.75	60.1804	4,593.75	65.8737	4,593.75	62.322	4,593.75	67.6386	4,593.75	65.9932	4,593.75	67.7727	4,593.75	64.636	4,593.75	58.0927	4,593.75	64.3948	4,593.75	50.4874
4,757.81	86.2673	4,757.81	85.1053	4,757.81	85.5321	4,757.81	83.0576	4,757.81	84.2133	4,757.81	82.4396	4,757.81	82.9634	4,757.81	81.882	4,757.81	82.0646	4,757.81	80.6461	4,757.81	80.3993	4,757.81	77.5407	4,757.81	77.5563	4,757.81	74.5602	4,757.81	75.1349	4,757.81	72.2673	4,757.81	72.6957	4,757.81	70.4511	4,757.81	69.7514	4,757.81	66.8745	4,757.81	68.3104	4,757.81	66.2866	4,757.81	66.0014	4,757.81	64.8617	4,757.81	64.8814	4,757.81	65.3066	4,757.81	64.8547	4,757.81	64.3516	4,757.81	63.392	4,757.81	66.4716	4,757.81	66.8246	4,757.81	65.9895	4,757.81	65.468	4,757.81	53.66	4,757.81	63.9186	4,757.81	54.4159
4,924.8	86.488	4,924.8	85.348	4,924.8	85.9672	4,924.8	83.7219	4,924.8	84.0945	4,924.8	82.6859	4,924.8	83.1816	4,924.8	82.0598	4,924.8	82.4887	4,924.8	80.2573	4,924.8	80.5579	4,924.8	78.0424	4,924.8	78.5019	4,924.8	75.6255	4,924.8	75.6772	4,924.8	72.347	4,924.8	73.195	4,924.8	69.2133	4,924.8	71.8294	4,924.8	67.3036	4,924.8	68.6192	4,924.8	64.3955	4,924.8	66.6532	4,924.8	61.6894	4,924.8	63.3947	4,924.8	62.7218	4,924.8	63.317	4,924.8	63.9649	4,924.8	62.3432	4,924.8	66.1281	4,924.8	66.1187	4,924.8	65.6642	4,924.8	65.9406	4,924.8	55.7131	4,924.8	65.0373	4,924.8	51.1211
5,097.66	86.6284	5,097.66	85.3249	5,097.66	85.7263	5,097.66	83.269	5,097.66	83.9939	5,097.66	82.6049	5,097.66	82.7238	5,097.66	81.6171	5,097.66	81.8997	5,097.66	79.8056	5,097.66	80.4748	5,097.66	77.0639	5,097.66	78.4617	5,097.66	74.8001	5,097.66	76.9177	5,097.66	72.425	5,097.66	74.8629	5,097.66	70.8081	5,097.66	72.1224	5,097.66	67.4377	5,097.66	70.2666	5,097.66	66.1989	5,097.66	67.9264	5,097.66	62.7569	5,097.66	65.8842	5,097.66	65.0134	5,097.66	64.8173	5,097.66	63.8433	5,097.66	64.1692	5,097.66	67.0347	5,097.66	66.5319	5,097.66	64.976	5,097.66	65.6038	5,097.66	55.7576	5,097.66	65.6035	5,097.66	48.9416
5,279.3	86.0538	5,279.3	84.9813	5,279.3	85.6349	5,279.3	83.4569	5,279.3	83.8435	5,279.3	82.6131	5,279.3	82.4506	5,279.3	81.8202	5,279.3	81.7288	5,279.3	79.8879	5,279.3	80.3507	5,279.3	78.3339	5,279.3	79.4598	5,279.3	76.1776	5,279.3	77.4889	5,279.3	73.3246	5,279.3	75.3958	5,279.3	70.9276	5,279.3	73.1454	5,279.3	67.483	5,279.3	69.9374	5,279.3	65.5668	5,279.3	67.7745	5,279.3	62.5127	5,279.3	64.8319	5,279.3	62.4376	5,279.3	62.3369	5,279.3	64.6065	5,279.3	63.0813	5,279.3	67.359	5,279.3	66.6277	5,279.3	66.0048	5,279.3	67.1907	5,279.3	58.3225	5,279.3	65.0016	5,279.3	50.4027
5,463.87	86.2706	5,463.87	85.3191	5,463.87	85.4917	5,463.87	83.6383	5,463.87	84.0386	5,463.87	82.4621	5,463.87	82.5404	5,463.87	80.8655	5,463.87	81.5304	5,463.87	79.3842	5,463.87	80.8629	5,463.87	77.5332	5,463.87	79.7278	5,463.87	75.2255	5,463.87	78.2577	5,463.87	72.309	5,463.87	75.8439	5,463.87	70.4859	5,463.87	73.118	5,463.87	68.0597	5,463.87	70.4182	5,463.87	65.9488	5,463.87	67.026	5,463.87	63.0235	5,463.87	66.7562	5,463.87	64.1576	5,463.87	64.1127	5,463.87	62.7744	5,463.87	64.3491	5,463.87	68.1647	5,463.87	66.5745	5,463.87	65.0014	5,463.87	67.2227	5,463.87	57.6011	5,463.87	65.5119	5,463.87	52.1038
5,657.23	85.6065	5,657.23	84.624	5,657.23	85.5021	5,657.23	83.2091	5,657.23	84.1557	5,657.23	81.5768	5,657.23	82.6858	5,657.23	80.2257	5,657.23	81.5171	5,657.23	79.0165	5,657.23	80.7758	5,657.23	78.2206	5,657.23	80.2416	5,657.23	76.2326	5,657.23	78.5984	5,657.23	73.9581	5,657.23	75.9749	5,657.23	71.8237	5,657.23	73.3331	5,657.23	68.4223	5,657.23	70.5962	5,657.23	66.0413	5,657.23	68.423	5,657.23	63.5126	5,657.23	65.7528	5,657.23	62.3951	5,657.23	63.3668	5,657.23	63.0126	5,657.23	62.8543	5,657.23	67.2872	5,657.23	67.5866	5,657.23	66.1015	5,657.23	67.8807	5,657.23	61.9512	5,657.23	64.4772	5,657.23	55.3736
5,856.45	85.4959	5,856.45	84.9812	5,856.45	85.0111	5,856.45	83.3617	5,856.45	84.4116	5,856.45	81.8086	5,856.45	82.4269	5,856.45	80.482	5,856.45	81.1962	5,856.45	80.1373	5,856.45	81.3092	5,856.45	78.9388	5,856.45	80.4399	5,856.45	77.0005	5,856.45	78.5581	5,856.45	73.5385	5,856.45	75.6802	5,856.45	69.505	5,856.45	72.4817	5,856.45	66.6894	5,856.45	69.9759	5,856.45	64.9765	5,856.45	66.5972	5,856.45	62.4861	5,856.45	65.8316	5,856.45	61.7882	5,856.45	64.5039	5,856.45	61.0587	5,856.45	64.5788	5,856.45	66.9944	5,856.45	64.9394	5,856.45	65.2931	5,856.45	67.5365	5,856.45	60.1632	5,856.45	65.4173	5,856.45	51.0179
6,061.52	85.3857	6,061.52	85.2467	6,061.52	85.5505	6,061.52	83.982	6,061.52	84.7131	6,061.52	81.4264	6,061.52	82.3908	6,061.52	80.3615	6,061.52	81.1563	6,061.52	80.0221	6,061.52	81.0339	6,061.52	78.4094	6,061.52	80.2508	6,061.52	75.3813	6,061.52	77.8788	6,061.52	72.1635	6,061.52	74.8742	6,061.52	69.1534	6,061.52	71.8657	6,061.52	64.8136	6,061.52	69.1767	6,061.52	63.2702	6,061.52	66.5472	6,061.52	62.471	6,061.52	62.9254	6,061.52	62.6863	6,061.52	61.0067	6,061.52	60.8584	6,061.52	61.1309	6,061.52	65.5971	6,061.52	65.2073	6,061.52	64.0734	6,061.52	65.7518	6,061.52	60.1902	6,061.52	64.0235	6,061.52	50.2227
6,275.39	85.7752	6,275.39	85.7409	6,275.39	85.8723	6,275.39	84.1528	6,275.39	85.0929	6,275.39	81.2823	6,275.39	82.4167	6,275.39	80.6334	6,275.39	81.23	6,275.39	80.0746	6,275.39	80.928	6,275.39	78.1799	6,275.39	79.5865	6,275.39	75.709	6,275.39	77.5064	6,275.39	72.8912	6,275.39	74.4819	6,275.39	69.0146	6,275.39	71.501	6,275.39	67.4185	6,275.39	68.2335	6,275.39	64.2868	6,275.39	65.0948	6,275.39	62.091	6,275.39	63.5198	6,275.39	60.1468	6,275.39	60.7254	6,275.39	63.4083	6,275.39	63.1147	6,275.39	65.8372	6,275.39	63.1185	6,275.39	63.1904	6,275.39	65.6065	6,275.39	60.1472	6,275.39	63.548	6,275.39	47.1444
6,498.05	85.6846	6,498.05	85.996	6,498.05	85.9021	6,498.05	84.1928	6,498.05	85.0014	6,498.05	81.428	6,498.05	82.3404	6,498.05	81.0272	6,498.05	81.3065	6,498.05	80.5367	6,498.05	80.8399	6,498.05	78.9238	6,498.05	79.8742	6,498.05	76.4496	6,498.05	77.6481	6,498.05	73.7599	6,498.05	74.8089	6,498.05	70.5683	6,498.05	72.1589	6,498.05	67.3107	6,498.05	69.4892	6,498.05	62.7534	6,498.05	66.1789	6,498.05	61.9841	6,498.05	63.4899	6,498.05	59.0952	6,498.05	56.1018	6,498.05	62.6093	6,498.05	60.8889	6,498.05	65.599	6,498.05	64.2766	6,498.05	63.5177	6,498.05	65.1865	6,498.05	59.9366	6,498.05	62.7898	6,498.05	45.7956
6,726.56	85.7088	6,726.56	86.0449	6,726.56	85.7196	6,726.56	84.4381	6,726.56	84.8121	6,726.56	82.4561	6,726.56	82.2516	6,726.56	81.8352	6,726.56	81.2014	6,726.56	80.9259	6,726.56	80.6712	6,726.56	79.3455	6,726.56	79.5321	6,726.56	76.7827	6,726.56	77.2207	6,726.56	73.9544	6,726.56	74.1896	6,726.56	70.071	6,726.56	71.3691	6,726.56	67.6123	6,726.56	68.3112	6,726.56	64.2701	6,726.56	64.5614	6,726.56	62.1891	6,726.56	63.413	6,726.56	58.4623	6,726.56	58.5472	6,726.56	63.7705	6,726.56	61.5765	6,726.56	66.1315	6,726.56	62.4127	6,726.56	63.924	6,726.56	64.96	6,726.56	60.2689	6,726.56	61.9456	6,726.56	47.4456
6,963.87	85.6436	6,963.87	86.0667	6,963.87	85.7281	6,963.87	84.5478	6,963.87	84.7709	6,963.87	82.8869	6,963.87	82.5804	6,963.87	81.932	6,963.87	81.5112	6,963.87	80.8373	6,963.87	80.7155	6,963.87	79.171	6,963.87	79.736	6,963.87	76.8152	6,963.87	77.3219	6,963.87	74.1941	6,963.87	74.6494	6,963.87	70.3094	6,963.87	71.5744	6,963.87	68.0846	6,963.87	68.499	6,963.87	64.0527	6,963.87	65.2881	6,963.87	63.6323	6,963.87	63.456	6,963.87	57.1063	6,963.87	58.4527	6,963.87	62.604	6,963.87	59.5014	6,963.87	65.3638	6,963.87	62.1486	6,963.87	62.6642	6,963.87	63.5693	6,963.87	59.5173	6,963.87	62.4529	6,963.87	42.3995
7,209.96	85.6054	7,209.96	85.7736	7,209.96	85.454	7,209.96	84.6123	7,209.96	84.5936	7,209.96	83.2995	7,209.96	83.2287	7,209.96	81.6827	7,209.96	81.637	7,209.96	80.6524	7,209.96	80.6138	7,209.96	79.6384	7,209.96	79.7501	7,209.96	77.3653	7,209.96	77.7948	7,209.96	74.4355	7,209.96	74.4446	7,209.96	70.7091	7,209.96	71.1289	7,209.96	67.573	7,209.96	68.1999	7,209.96	63.591	7,209.96	65.4379	7,209.96	60.6628	7,209.96	63.3281	7,209.96	57.1388	7,209.96	58.6089	7,209.96	61.8478	7,209.96	61.4202	7,209.96	64.0378	7,209.96	60.2888	7,209.96	62.0262	7,209.96	64.1321	7,209.96	57.0763	7,209.96	60.7149	7,209.96	41.1926
7,464.84	85.5319	7,464.84	85.4287	7,464.84	85.2346	7,464.84	84.4563	7,464.84	84.4273	7,464.84	83.1332	7,464.84	83.4842	7,464.84	81.2599	7,464.84	81.5204	7,464.84	80.3728	7,464.84	80.5646	7,464.84	79.3966	7,464.84	79.8585	7,464.84	76.4826	7,464.84	77.6366	7,464.84	73.1742	7,464.84	73.9669	7,464.84	69.83	7,464.84	70.8761	7,464.84	66.3508	7,464.84	67.4535	7,464.84	62.8203	7,464.84	64.703	7,464.84	61.0999	7,464.84	61.8915	7,464.84	57.8085	7,464.84	59.2531	7,464.84	62.2527	7,464.84	58.4992	7,464.84	62.0221	7,464.84	59.769	7,464.84	60.5993	7,464.84	63.2478	7,464.84	56.9491	7,464.84	58.9277	7,464.84	43.8261
7,728.52	85.3254	7,728.52	84.9649	7,728.52	84.8923	7,728.52	84.2562	7,728.52	84.2142	7,728.52	82.8441	7,728.52	83.6174	7,728.52	81.2509	7,728.52	81.7469	7,728.52	80.6629	7,728.52	80.9927	7,728.52	79.0604	7,728.52	79.9111	7,728.52	75.4635	7,728.52	77.0466	7,728.52	71.9753	7,728.52	73.1047	7,728.52	68.285	7,728.52	69.6546	7,728.52	65.0585	7,728.52	66.4985	7,728.52	61.6583	7,728.52	63.223	7,728.52	58.6661	7,728.52	60.2391	7,728.52	55.6457	7,728.52	59.4026	7,728.52	61.5499	7,728.52	58.4485	7,728.52	59.3136	7,728.52	58.2203	7,728.52	57.6124	7,728.52	61.8576	7,728.52	54.412	7,728.52	57.2346	7,728.52	37.3051
8,000.98	85.3716	8,000.98	84.7775	8,000.98	84.9882	8,000.98	84.3868	8,000.98	84.3893	8,000.98	83.1911	8,000.98	84.004	8,000.98	81.6089	8,000.98	82.0906	8,000.98	80.4254	8,000.98	81.273	8,000.98	78.7048	8,000.98	79.556	8,000.98	75.2234	8,000.98	76.3041	8,000.98	71.6309	8,000.98	72.4797	8,000.98	66.8711	8,000.98	69.2117	8,000.98	62.6272	8,000.98	65.2419	8,000.98	59.1073	8,000.98	62.9136	8,000.98	56.2142	8,000.98	59.751	8,000.98	55.4736	8,000.98	59.041	8,000.98	58.8432	8,000.98	56.9361	8,000.98	58.3462	8,000.98	57.0376	8,000.98	56.4734	8,000.98	61.8748	8,000.98	47.7982	8,000.98	55.7402	8,000.98	44.1681
8,282.23	85.5042	8,282.23	85.095	8,282.23	85.0837	8,282.23	84.8777	8,282.23	84.8347	8,282.23	83.45	8,282.23	84.3399	8,282.23	81.6329	8,282.23	82.1143	8,282.23	79.9877	8,282.23	81.1633	8,282.23	77.8141	8,282.23	78.9638	8,282.23	74.8199	8,282.23	76.3083	8,282.23	71.419	8,282.23	72.8711	8,282.23	67.5417	8,282.23	69.8525	8,282.23	63.3228	8,282.23	66.2431	8,282.23	60.2063	8,282.23	62.8014	8,282.23	57.7359	8,282.23	59.2989	8,282.23	54.5719	8,282.23	58.8431	8,282.23	59.0162	8,282.23	55.2794	8,282.23	55.9546	8,282.23	56.565	8,282.23	56.7043	8,282.23	60.1354	8,282.23	49.8195	8,282.23	55.4188	8,282.23	46.8439
8,575.2	85.782	8,575.2	85.1782	8,575.2	85.388	8,575.2	84.722	8,575.2	85.0307	8,575.2	82.9145	8,575.2	84.1467	8,575.2	81.3917	8,575.2	81.8611	8,575.2	79.598	8,575.2	80.6937	8,575.2	77.2309	8,575.2	78.5529	8,575.2	74.3287	8,575.2	76.2921	8,575.2	70.5345	8,575.2	72.4132	8,575.2	67.8428	8,575.2	69.1907	8,575.2	64.0316	8,575.2	66.2461	8,575.2	60.933	8,575.2	62.384	8,575.2	59.0844	8,575.2	59.5684	8,575.2	55.726	8,575.2	57.7894	8,575.2	57.0037	8,575.2	55.3046	8,575.2	55.5236	8,575.2	55.685	8,575.2	54.2649	8,575.2	58.601	8,575.2	46.4924	8,575.2	53.5511	8,575.2	48.334
8,876.95	85.551	8,876.95	84.8606	8,876.95	85.2083	8,876.95	84.385	8,876.95	84.6145	8,876.95	82.6427	8,876.95	83.643	8,876.95	81.4366	8,876.95	81.8377	8,876.95	79.1902	8,876.95	80.2164	8,876.95	77.12	8,876.95	78.2154	8,876.95	73.9903	8,876.95	76.0586	8,876.95	70.2897	8,876.95	71.6883	8,876.95	66.8328	8,876.95	68.1754	8,876.95	62.6912	8,876.95	65.0106	8,876.95	60.7163	8,876.95	60.8149	8,876.95	58.9332	8,876.95	59.8479	8,876.95	56.7162	8,876.95	56.8474	8,876.95	53.4988	8,876.95	55.2297	8,876.95	52.3859	8,876.95	55.7556	8,876.95	53.2421	8,876.95	56.4389	8,876.95	38.4659	8,876.95	51.3232	8,876.95	47.159
9,190.43	85.0743	9,190.43	84.6364	9,190.43	84.8801	9,190.43	84.223	9,190.43	84.0917	9,190.43	82.5578	9,190.43	83.1928	9,190.43	80.9561	9,190.43	81.4094	9,190.43	78.5044	9,190.43	79.2672	9,190.43	76.6559	9,190.43	77.2868	9,190.43	73.7761	9,190.43	74.5524	9,190.43	69.8346	9,190.43	70.4018	9,190.43	65.7213	9,190.43	66.5576	9,190.43	62.4055	9,190.43	62.87	9,190.43	58.9465	9,190.43	59.0356	9,190.43	57.3736	9,190.43	58.0778	9,190.43	54.678	9,190.43	54.0572	9,190.43	51.9325	9,190.43	53.66	9,190.43	50.7438	9,190.43	54.0273	9,190.43	52.5359	9,190.43	55.7891	9,190.43	34.4999	9,190.43	48.5304	9,190.43	46.6571
9,512.7	84.8544	9,512.7	84.7086	9,512.7	84.7087	9,512.7	84.0438	9,512.7	84.0158	9,512.7	82.341	9,512.7	82.9535	9,512.7	80.3669	9,512.7	80.7858	9,512.7	78.2058	9,512.7	78.3249	9,512.7	75.8912	9,512.7	76.1941	9,512.7	73.1884	9,512.7	72.8037	9,512.7	68.4987	9,512.7	68.6791	9,512.7	65.0422	9,512.7	63.7094	9,512.7	61.4904	9,512.7	61.1665	9,512.7	57.554	9,512.7	57.5823	9,512.7	56.6256	9,512.7	57.0042	9,512.7	51.3719	9,512.7	51.976	9,512.7	49.0287	9,512.7	52.3769	9,512.7	49.2692	9,512.7	50.638	9,512.7	50.0656	9,512.7	53.3772	9,512.7	36.4522	9,512.7	49.4827	9,512.7	47.4398
9,849.61	85.0803	9,849.61	84.8605	9,849.61	84.6748	9,849.61	83.9544	9,849.61	83.8472	9,849.61	82.1205	9,849.61	82.7711	9,849.61	80.1933	9,849.61	80.4002	9,849.61	78.1133	9,849.61	78.0749	9,849.61	75.4496	9,849.61	75.5268	9,849.61	72.0712	9,849.61	72.0756	9,849.61	67.3634	9,849.61	67.9694	9,849.61	64.3648	9,849.61	63.4218	9,849.61	60.3008	9,849.61	61.2694	9,849.61	57.8541	9,849.61	56.8158	9,849.61	55.9014	9,849.61	55.3302	9,849.61	52.0451	9,849.61	50.2634	9,849.61	48.9541	9,849.61	50.9674	9,849.61	47.9745	9,849.61	50.1792	9,849.61	47.3673	9,849.61	50.6543	9,849.61	40.3961	9,849.61	49.7456	9,849.61	46.9236
10,195.3	85.5097	10,195.3	85.0283	10,195.3	85.2114	10,195.3	83.8281	10,195.3	84.148	10,195.3	82.0577	10,195.3	82.8442	10,195.3	80.2504	10,195.3	80.4743	10,195.3	78.0709	10,195.3	78.2361	10,195.3	74.9336	10,195.3	75.145	10,195.3	70.8064	10,195.3	72.0082	10,195.3	66.9305	10,195.3	68.1136	10,195.3	62.5368	10,195.3	63.836	10,195.3	59.1532	10,195.3	60.6623	10,195.3	58.1714	10,195.3	56.9774	10,195.3	52.7824	10,195.3	53.3407	10,195.3	53.6874	10,195.3	49.9017	10,195.3	48.9647	10,195.3	51.1827	10,195.3	42.5935	10,195.3	50.2951	10,195.3	47.7747	10,195.3	48.2772	10,195.3	40.172	10,195.3	49.6638	10,195.3	47.1363
10,555.7	85.8132	10,555.7	85.0577	10,555.7	85.6782	10,555.7	83.9051	10,555.7	84.5927	10,555.7	82.2649	10,555.7	83.2013	10,555.7	80.3683	10,555.7	80.7429	10,555.7	77.5941	10,555.7	78.3312	10,555.7	73.9015	10,555.7	74.7391	10,555.7	69.7339	10,555.7	71.6621	10,555.7	65.4973	10,555.7	67.4774	10,555.7	59.8327	10,555.7	62.9655	10,555.7	58.2313	10,555.7	58.8192	10,555.7	56.3557	10,555.7	56.1484	10,555.7	48.3881	10,555.7	52.2192	10,555.7	51.8946	10,555.7	49.7096	10,555.7	48.3942	10,555.7	49.9924	10,555.7	31.4595	10,555.7	48.3742	10,555.7	44.5708	10,555.7	48.5162	10,555.7	38.9363	10,555.7	46.1963	10,555.7	47.5685
10,927.7	86.2478	10,927.7	85.5991	10,927.7	85.9283	10,927.7	84.2934	10,927.7	84.8615	10,927.7	82.4858	10,927.7	83.3475	10,927.7	80.198	10,927.7	80.6398	10,927.7	76.7524	10,927.7	77.5786	10,927.7	72.8051	10,927.7	73.3194	10,927.7	68.4647	10,927.7	69.669	10,927.7	63.346	10,927.7	64.6015	10,927.7	58.3283	10,927.7	60.0922	10,927.7	56.7897	10,927.7	56.1327	10,927.7	53.6085	10,927.7	54.6205	10,927.7	46.6924	10,927.7	49.7521	10,927.7	48.5543	10,927.7	46.7364	10,927.7	42.6323	10,927.7	46.8556	10,927.7	38.5464	10,927.7	45.3202	10,927.7	38.0528	10,927.7	44.1736	10,927.7	39.3909	10,927.7	43.719	10,927.7	45.4851
11,314.5	86.4509	11,314.5	85.7822	11,314.5	85.9439	11,314.5	84.4011	11,314.5	84.6381	11,314.5	82.3215	11,314.5	82.8121	11,314.5	79.5985	11,314.5	79.5986	11,314.5	75.4465	11,314.5	75.7976	11,314.5	71.2639	11,314.5	70.8787	11,314.5	65.7764	11,314.5	66.1206	11,314.5	61.2915	11,314.5	60.38	11,314.5	56.7824	11,314.5	55.7416	11,314.5	55.2426	11,314.5	51.336	11,314.5	51.8537	11,314.5	51.0916	11,314.5	45.9293	11,314.5	46.9822	11,314.5	45.0433	11,314.5	43.5719	11,314.5	41.4393	11,314.5	44.903	11,314.5	42.6612	11,314.5	39.394	11,314.5	43.6342	11,314.5	38.342	11,314.5	40.6583	11,314.5	40.6084	11,314.5	45.4662
11,712.9	86.2836	11,712.9	85.6064	11,712.9	85.8193	11,712.9	84.0503	11,712.9	84.3631	11,712.9	81.9232	11,712.9	82.0764	11,712.9	78.8643	11,712.9	78.4731	11,712.9	74.1063	11,712.9	73.8998	11,712.9	69.6858	11,712.9	67.5653	11,712.9	62.6225	11,712.9	60.6409	11,712.9	58.994	11,712.9	55.2701	11,712.9	53.3855	11,712.9	47.7902	11,712.9	53.4841	11,712.9	42.8278	11,712.9	49.1963	11,712.9	47.1814	11,712.9	46.0007	11,712.9	46.9064	11,712.9	40.0864	11,712.9	44.655	11,712.9	38.9745	11,712.9	42.6211	11,712.9	43.1293	11,712.9	34.1663	11,712.9	44.2719	11,712.9	42.8376	11,712.9	41.0648	11,712.9	37.1714	11,712.9	47.3272
12,126	86.4187	12,126	85.5608	12,126	86.0312	12,126	83.9262	12,126	84.4651	12,126	81.6234	12,126	82.1101	12,126	78.0395	12,126	78.0355	12,126	73.0617	12,126	72.7297	12,126	67.3394	12,126	64.7971	12,126	59.9002	12,126	59.0573	12,126	56.318	12,126	55.7611	12,126	49.0927	12,126	52.25	12,126	48.9834	12,126	47.8076	12,126	47.0122	12,126	49.1855	12,126	43.1611	12,126	48.011	12,126	32.8635	12,126	44.0119	12,126	37.0251	12,126	40.857	12,126	40.5268	12,126	40.6188	12,126	43.248	12,126	44.6468	12,126	39.6229	12,126	33.4249	12,126	45.5399
12,553.7	86.3845	12,553.7	85.5295	12,553.7	86.0618	12,553.7	83.72	12,553.7	84.6519	12,553.7	81.2265	12,553.7	82.2104	12,553.7	77.0487	12,553.7	77.7459	12,553.7	71.3013	12,553.7	72.1699	12,553.7	63.0375	12,553.7	63.179	12,553.7	52.2095	12,553.7	61.1105	12,553.7	48.7228	12,553.7	59.4567	12,553.7	30.4515	12,553.7	56.7039	12,553.7	45.243	12,553.7	52.9504	12,553.7	43.5504	12,553.7	52.0143	12,553.7	30.0118	12,553.7	48.5498	12,553.7	36.8391	12,553.7	46.4921	12,553.7	40.8309	12,553.7	42.5088	12,553.7	39.6013	12,553.7	37.5348	12,553.7	42.6991	12,553.7	44.2185	12,553.7	40.603	12,553.7	35.4195	12,553.7	47.5402
12,996.1	86.2621	12,996.1	85.2438	12,996.1	85.9333	12,996.1	83.415	12,996.1	84.473	12,996.1	80.6029	12,996.1	82.0354	12,996.1	75.5966	12,996.1	77.4718	12,996.1	67.5987	12,996.1	71.323	12,996.1	52.2962	12,996.1	62.4437	12,996.1	53.2043	12,996.1	63.3593	12,996.1	50.0881	12,996.1	61.9971	12,996.1	52.2383	12,996.1	59.8458	12,996.1	45.0368	12,996.1	55.8825	12,996.1	42.2905	12,996.1	53.6881	12,996.1	40.837	12,996.1	50.2826	12,996.1	42.2215	12,996.1	47.2265	12,996.1	39.6317	12,996.1	42.1026	12,996.1	39.8157	12,996.1	36.2815	12,996.1	45.0494	12,996.1	46.1592	12,996.1	45.0558	12,996.1	38.7169	12,996.1	47.8935
13,453.1	85.7791	13,453.1	84.8497	13,453.1	85.5339	13,453.1	83.3237	13,453.1	84.2485	13,453.1	80.2847	13,453.1	81.9021	13,453.1	74.2053	13,453.1	76.9534	13,453.1	62.0149	13,453.1	70.3843	13,453.1	55.739	13,453.1	64.2075	13,453.1	60.7769	13,453.1	65.6341	13,453.1	58.8332	13,453.1	64.0308	13,453.1	57.3102	13,453.1	61.7009	13,453.1	50.7694	13,453.1	56.4428	13,453.1	48.3488	13,453.1	54.9558	13,453.1	46.7653	13,453.1	51.3624	13,453.1	45.7344	13,453.1	48.9291	13,453.1	38.133	13,453.1	41.1832	13,453.1	44.1454	13,453.1	39.2573	13,453.1	44.3664	13,453.1	47.9509	13,453.1	45.587	13,453.1	44.2081	13,453.1	45.6605
13,927.7	84.9456	13,927.7	84.3933	13,927.7	84.806	13,927.7	83.0749	13,927.7	84.06	13,927.7	79.816	13,927.7	81.7889	13,927.7	72.6076	13,927.7	76.3196	13,927.7	58.3017	13,927.7	69.4764	13,927.7	62.8708	13,927.7	66.2946	13,927.7	64.9642	13,927.7	67.0297	13,927.7	62.5897	13,927.7	64.7733	13,927.7	59.8191	13,927.7	62.2925	13,927.7	54.7029	13,927.7	56.7348	13,927.7	52.4271	13,927.7	56.1531	13,927.7	49.2139	13,927.7	51.7298	13,927.7	46.5989	13,927.7	50.0773	13,927.7	29.5964	13,927.7	40.8746	13,927.7	46.6471	13,927.7	37.0924	13,927.7	42.8958	13,927.7	48.8966	13,927.7	46.3108	13,927.7	43.4398	13,927.7	41.9752
14,419.9	84.1847	14,419.9	83.9971	14,419.9	84.3811	14,419.9	83.2041	14,419.9	84.2537	14,419.9	79.5767	14,419.9	82.0419	14,419.9	71.4333	14,419.9	76.0689	14,419.9	64.7608	14,419.9	70.5536	14,419.9	66.5108	14,419.9	66.9058	14,419.9	66.6074	14,419.9	67.9164	14,419.9	64.4612	14,419.9	64.8225	14,419.9	61.0214	14,419.9	63.2822	14,419.9	57.4517	14,419.9	58.0408	14,419.9	54.7119	14,419.9	57.2806	14,419.9	51.3489	14,419.9	52.249	14,419.9	49.5531	14,419.9	50.6242	14,419.9	33.1857	14,419.9	43.6632	14,419.9	46.2808	14,419.9	30.0082	14,419.9	44.5057	14,419.9	49.5694	14,419.9	48.796	14,419.9	44.7148	14,419.9	43.4377
14,929.7	83.5308	14,929.7	83.8934	14,929.7	84.2406	14,929.7	83.4816	14,929.7	84.5345	14,929.7	79.5962	14,929.7	82.0996	14,929.7	71.4862	14,929.7	75.6897	14,929.7	67.3625	14,929.7	70.7208	14,929.7	67.4255	14,929.7	68.1412	14,929.7	67.5101	14,929.7	68.2749	14,929.7	66.5333	14,929.7	66.6486	14,929.7	61.6123	14,929.7	65.2478	14,929.7	58.3063	14,929.7	59.55	14,929.7	55.3471	14,929.7	58.4908	14,929.7	51.6511	14,929.7	53.6962	14,929.7	51.8723	14,929.7	50.0892	14,929.7	34.9831	14,929.7	46.5507	14,929.7	45.7732	14,929.7	36.2637	14,929.7	48.1226	14,929.7	49.5802	14,929.7	49.1579	14,929.7	46.6078	14,929.7	45.4657
15,454.1	82.8047	15,454.1	83.9636	15,454.1	84.079	15,454.1	83.7855	15,454.1	84.7785	15,454.1	79.5684	15,454.1	81.9963	15,454.1	71.8031	15,454.1	75.5472	15,454.1	68.5647	15,454.1	70.1992	15,454.1	68.7051	15,454.1	68.8737	15,454.1	70.1528	15,454.1	69.6058	15,454.1	68.3719	15,454.1	68.3563	15,454.1	62.3953	15,454.1	66.2074	15,454.1	59.8341	15,454.1	60.3084	15,454.1	54.98	15,454.1	59.1845	15,454.1	53.5927	15,454.1	53.61	15,454.1	51.3851	15,454.1	51.2711	15,454.1	41.408	15,454.1	45.7694	15,454.1	43.1455	15,454.1	44.387	15,454.1	51.8033	15,454.1	48.9241	15,454.1	53.5883	15,454.1	46.96	15,454.1	43.3199
15,999	82.0593	15,999	83.6387	15,999	83.9234	15,999	83.5657	15,999	84.6726	15,999	78.8267	15,999	81.4745	15,999	71.8707	15,999	74.9885	15,999	69.3238	15,999	68.5749	15,999	70.3763	15,999	70.1325	15,999	71.7054	15,999	71.1932	15,999	68.9832	15,999	68.4103	15,999	62.3088	15,999	66.198	15,999	60.991	15,999	60.3794	15,999	55.0001	15,999	58.9849	15,999	55.2431	15,999	51.6974	15,999	52.3818	15,999	50.6433	15,999	45.1363	15,999	49.6364	15,999	41.5094	15,999	48.4498	15,999	52.7568	15,999	48.4543	15,999	55.5675	15,999	49.2685	15,999	45.6491
16,564.5	81.9614	16,564.5	83.6716	16,564.5	84.1594	16,564.5	83.2268	16,564.5	84.7652	16,564.5	78.2925	16,564.5	81.2061	16,564.5	72.0721	16,564.5	74.6501	16,564.5	69.3369	16,564.5	67.733	16,564.5	71.9189	16,564.5	72.1429	16,564.5	71.9661	16,564.5	71.7283	16,564.5	69.7364	16,564.5	69.3195	16,564.5	62.9375	16,564.5	66.7586	16,564.5	61.3022	16,564.5	60.8014	16,564.5	55.0621	16,564.5	58.8433	16,564.5	56.3749	16,564.5	52.6139	16,564.5	52.529	16,564.5	50.5279	16,564.5	46.2957	16,564.5	52.3531	16,564.5	44.0853	16,564.5	50.827	16,564.5	53.1175	16,564.5	50.4454	16,564.5	57.1157	16,564.5	50.5075	16,564.5	49.1452
17,147.5	82.4926	17,147.5	84.1794	17,147.5	84.5876	17,147.5	83.2719	17,147.5	84.9577	17,147.5	78.7578	17,147.5	81.3346	17,147.5	71.4737	17,147.5	74.1991	17,147.5	69.1601	17,147.5	69.3205	17,147.5	72.8087	17,147.5	73.7693	17,147.5	72.6883	17,147.5	72.9999	17,147.5	70.1289	17,147.5	70.6244	17,147.5	63.5731	17,147.5	67.7566	17,147.5	61.3846	17,147.5	61.9701	17,147.5	54.1281	17,147.5	58.5467	17,147.5	57.1727	17,147.5	53.8654	17,147.5	52.6879	17,147.5	50.5753	17,147.5	44.8143	17,147.5	53.3906	17,147.5	49.273	17,147.5	53.6361	17,147.5	52.1887	17,147.5	54.2357	17,147.5	58.7351	17,147.5	51.5925	17,147.5	52.6005
17,753.9	82.8072	17,753.9	84.3127	17,753.9	84.5956	17,753.9	83.0905	17,753.9	84.5746	17,753.9	78.5953	17,753.9	80.6457	17,753.9	68.9617	17,753.9	71.0482	17,753.9	70.112	17,753.9	71.7369	17,753.9	72.6504	17,753.9	74.5772	17,753.9	72.3724	17,753.9	73.5613	17,753.9	68.9553	17,753.9	70.6825	17,753.9	62.9905	17,753.9	68.2837	17,753.9	60.5066	17,753.9	62.5326	17,753.9	52.8728	17,753.9	58.8501	17,753.9	56.7874	17,753.9	52.4856	17,753.9	52.3513	17,753.9	53.8299	17,753.9	44.4517	17,753.9	54.4168	17,753.9	52.1975	17,753.9	55.1767	17,753.9	53.6261	17,753.9	56.9555	17,753.9	59.8196	17,753.9	52.7711	17,753.9	56.1426
18,377.9	83.4672	18,377.9	83.4483	18,377.9	84.4199	18,377.9	81.4605	18,377.9	83.0376	18,377.9	76.3799	18,377.9	78.3153	18,377.9	56.661	18,377.9	65.0168	18,377.9	70.7449	18,377.9	73.4713	18,377.9	71.0562	18,377.9	73.9948	18,377.9	70.3037	18,377.9	72.8185	18,377.9	67.7447	18,377.9	70.9086	18,377.9	64.4266	18,377.9	68.2461	18,377.9	58.136	18,377.9	62.4189	18,377.9	55.3356	18,377.9	59.3317	18,377.9	55.8961	18,377.9	52.748	18,377.9	52.1709	18,377.9	55.9853	18,377.9	43.5703	18,377.9	53.5923	18,377.9	48.7778	18,377.9	55.3494	18,377.9	55.2048	18,377.9	58.5005	18,377.9	61.3667	18,377.9	54.5396	18,377.9	58.5172
19,028.3	84.6334	19,028.3	82.8172	19,028.3	84.3859	19,028.3	78.8238	19,028.3	81.5418	19,028.3	71.7573	19,028.3	76.1577	19,028.3	61.3605	19,028.3	68.4344	19,028.3	68.3147	19,028.3	72.8625	19,028.3	67.1987	19,028.3	72.5213	19,028.3	70.3714	19,028.3	71.9867	19,028.3	66.4192	19,028.3	69.0754	19,028.3	64.4387	19,028.3	65.7752	19,028.3	54.9422	19,028.3	60.0283	19,028.3	53.7891	19,028.3	56.0289	19,028.3	53.7539	19,028.3	50.8466	19,028.3	49.8171	19,028.3	53.1927	19,028.3	45.1336	19,028.3	52.0972	19,028.3	47.2203	19,028.3	54.1528	19,028.3	55.4758	19,028.3	55.4014	19,028.3	58.8426	19,028.3	55.8607	19,028.3	58.3198
19,699.2	84.9346	19,699.2	82.5791	19,699.2	83.8932	19,699.2	76.8065	19,699.2	80.7198	19,699.2	64.9678	19,699.2	74.6687	19,699.2	62.7954	19,699.2	69.8579	19,699.2	64.3998	19,699.2	71.9208	19,699.2	66.18	19,699.2	71.8804	19,699.2	68.1893	19,699.2	70.3008	19,699.2	62.3584	19,699.2	65.7023	19,699.2	60.4765	19,699.2	62.3883	19,699.2	50.1439	19,699.2	55.8409	19,699.2	49.7091	19,699.2	53.6449	19,699.2	46.7581	19,699.2	47.2978	19,699.2	44.9218	19,699.2	48.1171	19,699.2	46.7375	19,699.2	50.4049	19,699.2	48.6811	19,699.2	51.9001	19,699.2	53.5392	19,699.2	53.9083	19,699.2	57.6384	19,699.2	55.54	19,699.2	56.8943
19,998	84.7235	19,998	82.3442	19,998	83.4419	19,998	76.3134	19,998	80.1559	19,998	61.9438	19,998	73.7407	19,998	63.18	19,998	69.2682	19,998	63.8783	19,998	71.2023	19,998	65.341	19,998	71.6047	19,998	66.0812	19,998	69.0506	19,998	59.4874	19,998	64.1109	19,998	57.732	19,998	61.1458	19,998	47.1221	19,998	52.6807	19,998	35.5649	19,998	52.1965	19,998	42.1096	19,998	43.9093	19,998	46.7027	19,998	36.4487	19,998	44.5388	19,998	51.9033	19,998	47.3865	19,998	50.6949	19,998	53.3713	19,998	53.9503	19,998	57.9366	19,998	52.4744	19,998	56.7375
