"SPL Vertical"																																																																							
"On-Axis"		"10°"		"-10°"		"20°"		"-20°"		"30°"		"-30°"		"40°"		"-40°"		"50°"		"-50°"		"60°"		"-60°"		"70°"		"-70°"		"80°"		"-80°"		"90°"		"-90°"		"100°"		"-100°"		"110°"		"-110°"		"120°"		"-120°"		"130°"		"-130°"		"140°"		"-140°"		"150°"		"-150°"		"160°"		"-160°"		"170°"		"-170°"		"180°"	
"Frequency [Hz]"	"Sound Pessure Level [dB]  / [2.83V 1m] "	"Frequency [Hz]"	"Sound Pessure Level [dB]  / [2.83V 1m] "	"Frequency [Hz]"	"Sound Pessure Level [dB]  / [2.83V 1m] "	"Frequency [Hz]"	"Sound Pessure Level [dB]  / [2.83V 1m] "	"Frequency [Hz]"	"Sound Pessure Level [dB]  / [2.83V 1m] "	"Frequency [Hz]"	"Sound Pessure Level [dB]  / [2.83V 1m] "	"Frequency [Hz]"	"Sound Pessure Level [dB]  / [2.83V 1m] "	"Frequency [Hz]"	"Sound Pessure Level [dB]  / [2.83V 1m] "	"Frequency [Hz]"	"Sound Pessure Level [dB]  / [2.83V 1m] "	"Frequency [Hz]"	"Sound Pessure Level [dB]  / [2.83V 1m] "	"Frequency [Hz]"	"Sound Pessure Level [dB]  / [2.83V 1m] "	"Frequency [Hz]"	"Sound Pessure Level [dB]  / [2.83V 1m] "	"Frequency [Hz]"	"Sound Pessure Level [dB]  / [2.83V 1m] "	"Frequency [Hz]"	"Sound Pessure Level [dB]  / [2.83V 1m] "	"Frequency [Hz]"	"Sound Pessure Level [dB]  / [2.83V 1m] "	"Frequency [Hz]"	"Sound Pessure Level [dB]  / [2.83V 1m] "	"Frequency [Hz]"	"Sound Pessure Level [dB]  / [2.83V 1m] "	"Frequency [Hz]"	"Sound Pessure Level [dB]  / [2.83V 1m] "	"Frequency [Hz]"	"Sound Pessure Level [dB]  / [2.83V 1m] "	"Frequency [Hz]"	"Sound Pessure Level [dB]  / [2.83V 1m] "	"Frequency [Hz]"	"Sound Pessure Level [dB]  / [2.83V 1m] "	"Frequency [Hz]"	"Sound Pessure Level [dB]  / [2.83V 1m] "	"Frequency [Hz]"	"Sound Pessure Level [dB]  / [2.83V 1m] "	"Frequency [Hz]"	"Sound Pessure Level [dB]  / [2.83V 1m] "	"Frequency [Hz]"	"Sound Pessure Level [dB]  / [2.83V 1m] "	"Frequency [Hz]"	"Sound Pessure Level [dB]  / [2.83V 1m] "	"Frequency [Hz]"	"Sound Pessure Level [dB]  / [2.83V 1m] "	"Frequency [Hz]"	"Sound Pessure Level [dB]  / [2.83V 1m] "	"Frequency [Hz]"	"Sound Pessure Level [dB]  / [2.83V 1m] "	"Frequency [Hz]"	"Sound Pessure Level [dB]  / [2.83V 1m] "	"Frequency [Hz]"	"Sound Pessure Level [dB]  / [2.83V 1m] "	"Frequency [Hz]"	"Sound Pessure Level [dB]  / [2.83V 1m] "	"Frequency [Hz]"	"Sound Pessure Level [dB]  / [2.83V 1m] "	"Frequency [Hz]"	"Sound Pessure Level [dB]  / [2.83V 1m] "	"Frequency [Hz]"	"Sound Pessure Level [dB]  / [2.83V 1m] "	"Frequency [Hz]"	"Sound Pessure Level [dB]  / [2.83V 1m] "
20.5078	55.18	20.5078	54.6716	20.5078	55.7378	20.5078	54.2274	20.5078	56.3244	20.5078	53.8551	20.5078	56.915	20.5078	53.5561	20.5078	57.4834	20.5078	53.327	20.5078	58.0033	20.5078	53.1621	20.5078	58.451	20.5078	53.0559	20.5078	58.8059	20.5078	53.0041	20.5078	59.0516	20.5078	53.0056	20.5078	59.1768	20.5078	53.0615	20.5078	59.1757	20.5078	53.1752	20.5078	59.0481	20.5078	53.3512	20.5078	58.8001	20.5078	53.5933	20.5078	58.4436	20.5078	53.904	20.5078	57.9963	20.5078	54.283	20.5078	57.4803	20.5078	54.7264	20.5078	56.9204	20.5078	55.2263	20.5078	56.3424	20.5078	55.7707
23.4375	59.0078	23.4375	58.5397	23.4375	59.5187	23.4375	58.1276	23.4375	60.0541	23.4375	57.7786	23.4375	60.592	23.4375	57.4949	23.4375	61.1086	23.4375	57.2742	23.4375	61.58	23.4375	57.1123	23.4375	61.9839	23.4375	57.0046	23.4375	62.301	23.4375	56.9476	23.4375	62.5157	23.4375	56.9398	23.4375	62.6171	23.4375	56.9818	23.4375	62.5998	23.4375	57.0759	23.4375	62.4641	23.4375	57.2256	23.4375	62.2163	23.4375	57.4343	23.4375	61.8689	23.4375	57.7047	23.4375	61.4397	23.4375	58.0372	23.4375	60.9507	23.4375	58.4297	23.4375	60.4265	23.4375	58.8768	23.4375	59.8917	23.4375	59.3689
26.3672	62.6505	26.3672	62.2527	26.3672	63.0841	26.3672	61.9003	26.3672	63.539	26.3672	61.5988	26.3672	63.9973	26.3672	61.3495	26.3672	64.4388	26.3672	61.151	26.3672	64.8425	26.3672	61.0004	26.3672	65.1881	26.3672	60.8944	26.3672	65.4574	26.3672	60.8308	26.3672	65.6358	26.3672	60.8086	26.3672	65.7129	26.3672	60.8284	26.3672	65.6833	26.3672	60.8924	26.3672	65.5476	26.3672	61.0035	26.3672	65.3122	26.3672	61.1651	26.3672	64.9895	26.3672	61.3799	26.3672	64.597	26.3672	61.6495	26.3672	64.156	26.3672	61.9735	26.3672	63.6895	26.3672	62.3486	26.3672	63.2202	26.3672	62.7679
29.2969	65.8689	29.2969	65.5235	29.2969	66.2429	29.2969	65.2144	29.2969	66.634	29.2969	64.9462	29.2969	67.0274	29.2969	64.7201	29.2969	67.4059	29.2969	64.5355	29.2969	67.7513	29.2969	64.3908	29.2969	68.0454	29.2969	64.2839	29.2969	68.2718	29.2969	64.2135	29.2969	68.4167	29.2969	64.1793	29.2969	68.4706	29.2969	64.1821	29.2969	68.4287	29.2969	64.2236	29.2969	68.2918	29.2969	64.3065	29.2969	68.0666	29.2969	64.4338	29.2969	67.7653	29.2969	64.608	29.2969	67.4051	29.2969	64.8308	29.2969	67.006	29.2969	65.1026	29.2969	66.5895	29.2969	65.4214	29.2969	66.1758	29.2969	65.782
32.2266	68.7495	32.2266	68.4516	32.2266	69.0713	32.2266	68.1839	32.2266	69.4074	32.2266	67.9499	32.2266	69.7453	32.2266	67.7508	32.2266	70.0704	32.2266	67.5864	32.2266	70.3666	32.2266	67.4554	32.2266	70.6175	32.2266	67.3564	32.2266	70.8081	32.2266	67.2887	32.2266	70.9261	32.2266	67.2521	32.2266	70.9626	32.2266	67.2473	32.2266	70.9137	32.2266	67.2758	32.2266	70.7807	32.2266	67.3398	32.2266	70.5707	32.2266	67.4417	32.2266	70.2957	32.2266	67.5835	32.2266	69.9723	32.2266	67.767	32.2266	69.6192	32.2266	67.9925	32.2266	69.2556	32.2266	68.2592	32.2266	68.899	32.2266	68.5635
35.1563	71.4116	35.1563	71.1435	35.1563	71.6989	35.1563	70.9006	35.1563	71.9971	35.1563	70.6861	35.1563	72.2954	35.1563	70.5015	35.1563	72.5807	35.1563	70.347	35.1563	72.8388	35.1563	70.222	35.1563	73.0552	35.1563	70.1259	35.1563	73.2163	35.1563	70.0581	35.1563	73.311	35.1563	70.0185	35.1563	73.3314	35.1563	70.0077	35.1563	73.2745	35.1563	70.027	35.1563	73.142	35.1563	70.0779	35.1563	72.9413	35.1563	70.1625	35.1563	72.6843	35.1563	70.2824	35.1563	72.3867	35.1563	70.439	35.1563	72.0663	35.1563	70.6329	35.1563	71.7402	35.1563	70.8637	35.1563	71.4238	35.1563	71.1289
38.0859	73.9119	38.0859	73.6642	38.0859	74.1741	38.0859	73.4367	38.0859	74.4435	38.0859	73.2327	38.0859	74.7103	38.0859	73.0544	38.0859	74.9631	38.0859	72.9026	38.0859	75.1896	38.0859	72.7777	38.0859	75.3768	38.0859	72.6797	38.0859	75.5128	38.0859	72.6086	38.0859	75.588	38.0859	72.5647	38.0859	75.5955	38.0859	72.5488	38.0859	75.5329	38.0859	72.562	38.0859	75.4025	38.0859	72.6055	38.0859	75.2116	38.0859	72.6807	38.0859	74.9715	38.0859	72.7888	38.0859	74.6969	38.0859	72.9306	38.0859	74.4038	38.0859	73.1062	38.0859	74.1074	38.0859	73.3149	38.0859	73.821	38.0859	73.5545
41.0156	76.0397	41.0156	75.8124	41.0156	76.2791	41.0156	75.6024	41.0156	76.5235	41.0156	75.4133	41.0156	76.7639	41.0156	75.2475	41.0156	76.9901	41.0156	75.1063	41.0156	77.1907	41.0156	74.9901	41.0156	77.3541	41.0156	74.8991	41.0156	77.4699	41.0156	74.8336	41.0156	77.5294	41.0156	74.7936	41.0156	77.5269	41.0156	74.7795	41.0156	77.461	41.0156	74.792	41.0156	77.3346	41.0156	74.8317	41.0156	77.155	41.0156	74.8995	41.0156	76.9335	41.0156	74.9961	41.0156	76.6839	41.0156	75.1217	41.0156	76.4206	41.0156	75.2765	41.0156	76.157	41.0156	75.4598	41.0156	75.9041	41.0156	75.67
43.9453	77.9763	43.9453	77.7618	43.9453	78.1988	43.9453	77.5604	43.9453	78.4228	43.9453	77.3759	43.9453	78.6402	43.9453	77.2109	43.9453	78.8418	43.9453	77.0673	43.9453	79.0176	43.9453	76.9462	43.9453	79.1574	43.9453	76.8486	43.9453	79.252	43.9453	76.7751	43.9453	79.294	43.9453	76.7265	43.9453	79.2789	43.9453	76.7033	43.9453	79.2057	43.9453	76.7066	43.9453	79.0777	43.9453	76.7371	43.9453	78.9024	43.9453	76.7955	43.9453	78.6903	43.9453	76.8824	43.9453	78.4542	43.9453	76.9977	43.9453	78.2071	43.9453	77.1412	43.9453	77.961	43.9453	77.3117	43.9453	77.7254	43.9453	77.5074
46.875	79.5814	46.875	79.3781	46.875	79.7904	46.875	79.1859	46.875	79.999	46.875	79.0085	46.875	80.1994	46.875	78.8491	46.875	80.3832	46.875	78.7096	46.875	80.5412	46.875	78.5918	46.875	80.6642	46.875	78.4967	46.875	80.744	46.875	78.4251	46.875	80.7742	46.875	78.3779	46.875	80.7513	46.875	78.3557	46.875	80.6752	46.875	78.3592	46.875	80.5497	46.875	78.3886	46.875	80.3824	46.875	78.4445	46.875	80.1835	46.875	78.5266	46.875	79.9651	46.875	78.6346	46.875	79.7387	46.875	78.7675	46.875	79.5146	46.875	78.9242	46.875	79.3008	46.875	79.1027
49.8047	80.9103	49.8047	80.7147	49.8047	81.1091	49.8047	80.5276	49.8047	81.305	49.8047	80.3531	49.8047	81.4908	49.8047	80.1946	49.8047	81.6584	49.8047	80.0546	49.8047	81.7994	49.8047	79.935	49.8047	81.9058	49.8047	79.8375	49.8047	81.9702	49.8047	79.763	49.8047	81.9872	49.8047	79.7124	49.8047	81.9541	49.8047	79.6864	49.8047	81.8714	49.8047	79.6856	49.8047	81.7435	49.8047	79.7101	49.8047	81.578	49.8047	79.7599	49.8047	81.3851	49.8047	79.8348	49.8047	81.176	49.8047	79.9341	49.8047	80.9616	49.8047	80.0569	49.8047	80.7511	49.8047	80.2018	49.8047	80.5514	49.8047	80.3673
52.7344	81.9227	52.7344	81.7343	52.7344	82.1128	52.7344	81.5525	52.7344	82.2984	52.7344	81.3818	52.7344	82.4727	52.7344	81.2257	52.7344	82.6285	52.7344	81.087	52.7344	82.7578	52.7344	80.9679	52.7344	82.8535	52.7344	80.8704	52.7344	82.909	52.7344	80.7957	52.7344	82.9197	52.7344	80.745	52.7344	82.8836	52.7344	80.7189	52.7344	82.8018	52.7344	80.718	52.7344	82.6785	52.7344	80.7425	52.7344	82.5212	52.7344	80.7922	52.7344	82.3395	52.7344	80.8663	52.7344	82.1434	52.7344	80.9639	52.7344	81.9426	52.7344	81.0836	52.7344	81.7451	52.7344	81.2236	52.7344	81.5569	52.7344	81.3821
55.6641	82.6781	55.6641	82.4965	55.6641	82.8601	55.6641	82.3204	55.6641	83.0365	55.6641	82.1544	55.6641	83.2007	55.6641	82.0023	55.6641	83.3456	55.6641	81.8671	55.6641	83.4643	55.6641	81.7513	55.6641	83.5499	55.6641	81.657	55.6641	83.5969	55.6641	81.5855	55.6641	83.6014	55.6641	81.5378	55.6641	83.5621	55.6641	81.5147	55.6641	83.4806	55.6641	81.5163	55.6641	83.3616	55.6641	81.5424	55.6641	83.2124	55.6641	81.5927	55.6641	83.0421	55.6641	81.6659	55.6641	82.86	55.6641	81.7607	55.6641	82.6745	55.6641	81.8753	55.6641	82.4924	55.6641	82.0078	55.6641	82.3186	55.6641	82.1562
58.5938	83.2927	58.5938	83.1154	58.5938	83.4688	58.5938	82.9421	58.5938	83.6376	58.5938	82.7776	58.5938	83.793	58.5938	82.6259	58.5938	83.9281	58.5938	82.4903	58.5938	84.0364	58.5938	82.3738	58.5938	84.1119	58.5938	82.2785	58.5938	84.1496	58.5938	82.2061	58.5938	84.1465	58.5938	82.1577	58.5938	84.1019	58.5938	82.134	58.5938	84.0181	58.5938	82.1353	58.5938	83.9	58.5938	82.1611	58.5938	83.7551	58.5938	82.2107	58.5938	83.5919	58.5938	82.2827	58.5938	83.4191	58.5938	82.3753	58.5938	83.2442	58.5938	82.4864	58.5938	83.0729	58.5938	82.6138	58.5938	82.909	58.5938	82.7553
61.5234	83.7619	61.5234	83.5863	61.5234	83.9344	61.5234	83.4133	61.5234	84.098	61.5234	83.2476	61.5234	84.2464	61.5234	83.0937	61.5234	84.3733	61.5234	82.9553	61.5234	84.4725	61.5234	82.8355	61.5234	84.5385	61.5234	82.737	61.5234	84.567	61.5234	82.6615	61.5234	84.5557	61.5234	82.6105	61.5234	84.5044	61.5234	82.5847	61.5234	84.4161	61.5234	82.5842	61.5234	84.2962	61.5234	82.6086	61.5234	84.152	61.5234	82.6569	61.5234	83.9922	61.5234	82.7274	61.5234	83.8247	61.5234	82.8181	61.5234	83.6563	61.5234	82.9265	61.5234	83.4919	61.5234	83.0502	61.5234	83.3348	61.5234	83.1869
64.4531	84.1207	64.4531	83.9466	64.4531	84.2896	64.4531	83.7729	64.4531	84.4476	64.4531	83.6045	64.4531	84.5886	64.4531	83.4461	64.4531	84.7067	64.4531	83.3016	64.4531	84.7962	64.4531	83.1747	64.4531	84.8519	64.4531	83.0682	64.4531	84.8703	64.4531	82.9844	64.4531	84.8495	64.4531	82.9252	64.4531	84.7901	64.4531	82.8915	64.4531	84.6951	64.4531	82.8838	64.4531	84.5703	64.4531	82.9019	64.4531	84.4231	64.4531	82.9448	64.4531	84.2617	64.4531	83.0109	64.4531	84.094	64.4531	83.0981	64.4531	83.9262	64.4531	83.2038	64.4531	83.7628	64.4531	83.3254	64.4531	83.6069	64.4531	83.4605
67.3828	84.3941	67.3828	84.2251	67.3828	84.5567	67.3828	84.0551	67.3828	84.7072	67.3828	83.889	67.3828	84.8401	67.3828	83.7314	67.3828	84.9496	67.3828	83.5864	67.3828	85.0304	67.3828	83.4576	67.3828	85.0781	67.3828	83.3482	67.3828	85.0896	67.3828	83.2606	67.3828	85.0635	67.3828	83.1969	67.3828	85.0007	67.3828	83.1585	67.3828	84.9048	67.3828	83.1461	67.3828	84.7814	67.3828	83.1598	67.3828	84.6378	67.3828	83.1989	67.3828	84.4814	67.3828	83.2619	67.3828	84.3195	67.3828	83.3468	67.3828	84.1573	67.3828	83.4506	67.3828	83.999	67.3828	83.5705	67.3828	83.847	67.3828	83.7035
70.3125	84.6389	70.3125	84.4758	70.3125	84.7957	70.3125	84.312	70.3125	84.9406	70.3125	84.1525	70.3125	85.0678	70.3125	84.002	70.3125	85.1718	70.3125	83.8645	70.3125	85.2474	70.3125	83.7438	70.3125	85.2905	70.3125	83.6426	70.3125	85.2983	70.3125	83.5633	70.3125	85.2702	70.3125	83.5078	70.3125	85.2076	70.3125	83.477	70.3125	85.1146	70.3125	83.4713	70.3125	84.9972	70.3125	83.4903	70.3125	84.8628	70.3125	83.5328	70.3125	84.7187	70.3125	83.5971	70.3125	84.5712	70.3125	83.6804	70.3125	84.4249	70.3125	83.7799	70.3125	84.2824	70.3125	83.8923	70.3125	84.1454	70.3125	84.0148
73.2422	84.8927	73.2422	84.7311	73.2422	85.0472	73.2422	84.568	73.2422	85.1887	73.2422	84.4089	73.2422	85.3114	73.2422	84.2586	73.2422	85.4101	73.2422	84.1217	73.2422	85.48	73.2422	84.0022	73.2422	85.5174	73.2422	83.903	73.2422	85.5201	73.2422	83.8267	73.2422	85.488	73.2422	83.7748	73.2422	85.4233	73.2422	83.7483	73.2422	85.3304	73.2422	83.747	73.2422	85.2156	73.2422	83.7702	73.2422	85.0862	73.2422	83.8161	73.2422	84.9493	73.2422	83.8824	73.2422	84.8106	73.2422	83.9662	73.2422	84.6739	73.2422	84.064	73.2422	84.541	73.2422	84.1728	73.2422	84.4128	73.2422	84.2897
76.1719	85.0983	76.1719	84.9331	76.1719	85.2548	76.1719	84.7654	76.1719	85.3969	76.1719	84.6006	76.1719	85.5188	76.1719	84.4443	76.1719	85.6151	76.1719	84.3011	76.1719	85.6813	76.1719	84.1755	76.1719	85.714	76.1719	84.071	76.1719	85.7113	76.1719	83.9901	76.1719	85.6735	76.1719	83.9347	76.1719	85.6031	76.1719	83.9058	76.1719	85.5049	76.1719	83.9032	76.1719	85.3857	76.1719	83.9259	76.1719	85.2528	76.1719	83.9722	76.1719	85.1135	76.1719	84.0393	76.1719	84.9733	76.1719	84.1241	76.1719	84.8357	76.1719	84.223	76.1719	84.7023	76.1719	84.3326	76.1719	84.5737	76.1719	84.4501
79.1016	85.2359	79.1016	85.0696	79.1016	85.3929	79.1016	84.9002	79.1016	85.535	79.1016	84.7334	79.1016	85.6564	79.1016	84.5751	79.1016	85.7523	79.1016	84.4303	79.1016	85.8184	79.1016	84.3038	79.1016	85.8519	79.1016	84.1995	79.1016	85.8512	79.1016	84.1205	79.1016	85.8172	79.1016	84.0687	79.1016	85.7525	79.1016	84.0452	79.1016	85.6621	79.1016	84.0497	79.1016	85.5521	79.1016	84.0809	79.1016	85.4294	79.1016	84.1365	79.1016	85.3	79.1016	84.2133	79.1016	85.1685	79.1016	84.3074	79.1016	85.0374	79.1016	84.4149	79.1016	84.9077	79.1016	84.5315	79.1016	84.7798	79.1016	84.6539
82.0313	85.5419	82.0313	85.3806	82.0313	85.6912	82.0313	85.213	82.0313	85.8228	82.0313	85.0453	82.0313	85.9313	82.0313	84.8832	82.0313	86.0123	82.0313	84.7322	82.0313	86.0621	82.0313	84.5975	82.0313	86.0785	82.0313	84.4835	82.0313	86.061	82.0313	84.394	82.0313	86.0113	82.0313	84.3316	82.0313	85.9334	82.0313	84.2982	82.0313	85.8331	82.0313	84.2939	82.0313	85.7175	82.0313	84.3178	82.0313	85.5937	82.0313	84.3676	82.0313	85.4675	82.0313	84.4399	82.0313	85.3426	82.0313	84.5302	82.0313	85.2202	82.0313	84.6337	82.0313	85.0999	82.0313	84.7458	82.0313	84.9807	82.0313	84.8623
84.9609	85.7689	84.9609	85.6092	84.9609	85.9128	84.9609	85.4396	84.9609	86.0355	84.9609	85.2656	84.9609	86.132	84.9609	85.0931	84.9609	86.1978	84.9609	84.9276	84.9609	86.2295	84.9609	84.7745	84.9609	86.225	84.9609	84.6386	84.9609	86.1841	84.9609	84.5243	84.9609	86.1088	84.9609	84.4352	84.9609	86.0035	84.9609	84.3739	84.9609	85.8749	84.9609	84.3418	84.9609	85.7312	84.9609	84.339	84.9609	85.5809	84.9609	84.3639	84.9609	85.4312	84.9609	84.414	84.9609	85.2871	84.9609	84.4852	84.9609	85.1506	84.9609	84.5733	84.9609	85.0217	84.9609	84.6739	84.9609	84.8996	84.9609	84.7834
87.8906	85.7578	87.8906	85.6068	87.8906	85.8979	87.8906	85.4501	87.8906	86.0218	87.8906	85.2929	87.8906	86.1242	87.8906	85.1398	87.8906	86.2007	87.8906	84.9954	87.8906	86.2474	87.8906	84.8634	87.8906	86.2617	87.8906	84.7472	87.8906	86.2425	87.8906	84.6498	87.8906	86.1908	87.8906	84.5736	87.8906	86.1094	87.8906	84.5203	87.8906	86.0031	87.8906	84.4914	87.8906	85.8783	87.8906	84.4874	87.8906	85.7414	87.8906	84.5081	87.8906	85.5987	87.8906	84.5526	87.8906	85.4549	87.8906	84.6189	87.8906	85.3132	87.8906	84.7044	87.8906	85.1758	87.8906	84.8059	87.8906	85.0442	87.8906	84.9201
90.8203	85.6456	90.8203	85.4891	90.8203	85.7924	90.8203	85.3296	90.8203	85.9236	90.8203	85.1735	90.8203	86.0337	90.8203	85.0274	90.8203	86.1182	90.8203	84.897	90.8203	86.1741	90.8203	84.7874	90.8203	86.2	90.8203	84.7028	90.8203	86.1965	90.8203	84.6458	90.8203	86.1661	90.8203	84.6181	90.8203	86.1136	90.8203	84.6197	90.8203	86.0447	90.8203	84.6496	90.8203	85.9657	90.8203	84.7051	90.8203	85.882	90.8203	84.7826	90.8203	85.7967	90.8203	84.8775	90.8203	85.7107	90.8203	84.9846	90.8203	85.6227	90.8203	85.0983	90.8203	85.5303	90.8203	85.2134	90.8203	85.4315	90.8203	85.3255
93.75	85.9688	93.75	85.8086	93.75	86.1131	93.75	85.6388	93.75	86.2356	93.75	85.4664	93.75	86.3311	93.75	85.2984	93.75	86.3958	93.75	85.1416	93.75	86.4274	93.75	85.0025	93.75	86.4254	93.75	84.8868	93.75	86.3912	93.75	84.7991	93.75	86.3289	93.75	84.7426	93.75	86.2445	93.75	84.7188	93.75	86.1457	93.75	84.7274	93.75	86.0403	93.75	84.7664	93.75	85.9351	93.75	84.8317	93.75	85.834	93.75	84.918	93.75	85.7378	93.75	85.0192	93.75	85.6446	93.75	85.1286	93.75	85.5508	93.75	85.2402	93.75	85.453	93.75	85.3493
96.6797	86.1864	96.6797	86.0299	96.6797	86.3247	96.6797	85.8609	96.6797	86.4393	96.6797	85.6858	96.6797	86.5255	96.6797	85.5106	96.6797	86.5794	96.6797	85.3414	96.6797	86.5985	96.6797	85.1843	96.6797	86.5821	96.6797	85.0446	96.6797	86.5315	96.6797	84.9274	96.6797	86.4502	96.6797	84.8367	96.6797	86.3441	96.6797	84.7756	96.6797	86.2209	96.6797	84.7458	96.6797	86.0885	96.6797	84.7473	96.6797	85.9544	96.6797	84.7784	96.6797	85.8235	96.6797	84.8359	96.6797	85.698	96.6797	84.9151	96.6797	85.5776	96.6797	85.0107	96.6797	85.4603	96.6797	85.1171	96.6797	85.3444	96.6797	85.2295
102.539	86.3503	102.539	86.2005	102.539	86.4824	102.539	86.0394	102.539	86.5911	102.539	85.8736	102.539	86.6714	102.539	85.7098	102.539	86.7196	102.539	85.5544	102.539	86.7336	102.539	85.4132	102.539	86.7133	102.539	85.2915	102.539	86.6613	102.539	85.1937	102.539	86.5821	102.539	85.1232	102.539	86.4831	102.539	85.0818	102.539	86.3726	102.539	85.0703	102.539	86.2592	102.539	85.0877	102.539	86.1494	102.539	85.1315	102.539	86.0468	102.539	85.1978	102.539	85.9514	102.539	85.2813	102.539	85.8603	102.539	85.3763	102.539	85.7695	102.539	85.4769	102.539	85.6758	102.539	85.5779
105.469	86.3975	105.469	86.2491	105.469	86.5274	105.469	86.0887	105.469	86.6329	105.469	85.9233	105.469	86.7088	105.469	85.7598	105.469	86.7517	105.469	85.6049	105.469	86.7595	105.469	85.4648	105.469	86.7326	105.469	85.345	105.469	86.6738	105.469	85.2499	105.469	86.5886	105.469	85.1829	105.469	86.4849	105.469	85.1458	105.469	86.372	105.469	85.1387	105.469	86.259	105.469	85.1603	105.469	86.1529	105.469	85.2075	105.469	86.0572	105.469	85.2756	105.469	85.9712	105.469	85.3591	105.469	85.8911	105.469	85.4516	105.469	85.8118	105.469	85.5471	105.469	85.7291	105.469	85.6407
108.398	86.4812	108.398	86.3274	108.398	86.6151	108.398	86.1604	108.398	86.7229	108.398	85.9875	108.398	86.7995	108.398	85.8162	108.398	86.8416	108.398	85.6538	108.398	86.8472	108.398	85.507	108.398	86.8171	108.398	85.3819	108.398	86.7543	108.398	85.2836	108.398	86.6648	108.398	85.2155	108.398	86.5571	108.398	85.1797	108.398	86.4408	108.398	85.176	108.398	86.3256	108.398	85.2027	108.398	86.2187	108.398	85.2559	108.398	86.1233	108.398	85.3304	108.398	86.0385	108.398	85.4197	108.398	85.9601	108.398	85.5171	108.398	85.8824	108.398	85.6161	108.398	85.8005	108.398	85.7116
111.328	86.6153	111.328	86.461	111.328	86.748	111.328	86.292	111.328	86.8531	111.328	86.1155	111.328	86.9258	111.328	85.9391	111.328	86.9627	111.328	85.7703	111.328	86.9623	111.328	85.6162	111.328	86.9257	111.328	85.4835	111.328	86.8562	111.328	85.3776	111.328	86.7604	111.328	85.3028	111.328	86.6471	111.328	85.2613	111.328	86.5265	111.328	85.2537	111.328	86.4084	111.328	85.2781	111.328	86.3001	111.328	85.3306	111.328	86.2046	111.328	85.4058	111.328	86.1204	111.328	85.4967	111.328	86.0428	111.328	85.596	111.328	85.9656	111.328	85.6969	111.328	85.8836	111.328	85.7939
117.188	86.8174	117.188	86.6649	117.188	86.9463	117.188	86.4961	117.188	87.0457	117.188	86.3186	117.188	87.1104	117.188	86.1404	117.188	87.1373	117.188	85.9692	117.188	87.1253	117.188	85.8125	117.188	87.0759	117.188	85.6773	117.188	86.9938	117.188	85.5693	117.188	86.8868	117.188	85.493	117.188	86.7653	117.188	85.4512	117.188	86.6411	117.188	85.4442	117.188	86.5248	117.188	85.4704	117.188	86.4238	117.188	85.5256	117.188	86.3403	117.188	85.6038	117.188	86.2709	117.188	85.6973	117.188	86.2085	117.188	85.7981	117.188	86.1451	117.188	85.8983	117.188	86.0739	117.188	85.9915
120.117	86.971	120.117	86.8176	120.117	87.0996	120.117	86.647	120.117	87.197	120.117	86.4674	120.117	87.258	120.117	86.287	120.117	87.2792	120.117	86.1144	120.117	87.2596	120.117	85.9572	120.117	87.2009	120.117	85.8227	120.117	87.1082	120.117	85.7167	120.117	86.9899	120.117	85.6435	120.117	86.8575	120.117	85.6054	120.117	86.7239	120.117	85.6024	120.117	86.6013	120.117	85.6319	120.117	86.4982	120.117	85.6891	120.117	86.4173	120.117	85.7673	120.117	86.355	120.117	85.8582	120.117	86.3035	120.117	85.9533	120.117	86.2532	120.117	86.0448	120.117	86.1959	120.117	86.1267
125.977	87.0812	125.977	86.926	125.977	87.2093	125.977	86.7508	125.977	87.3042	125.977	86.5635	125.977	87.3612	125.977	86.3728	125.977	87.3773	125.977	86.1875	125.977	87.3519	125.977	86.0163	125.977	87.2866	125.977	85.8675	125.977	87.1864	125.977	85.7479	125.977	87.0595	125.977	85.6628	125.977	86.9169	125.977	85.6151	125.977	86.7711	125.977	85.6047	125.977	86.6346	125.977	85.6286	125.977	86.5163	125.977	85.6811	125.977	86.4201	125.977	85.7547	125.977	86.3442	125.977	85.8407	125.977	86.2818	125.977	85.9307	125.977	86.2246	125.977	86.0174	125.977	86.1644	125.977	86.0959
128.906	87.0085	128.906	86.855	128.906	87.1344	128.906	86.6806	128.906	87.2268	128.906	86.4931	128.906	87.2814	128.906	86.3006	128.906	87.2953	128.906	86.1118	128.906	87.2682	128.906	85.9353	128.906	87.202	128.906	85.7795	128.906	87.102	128.906	85.652	128.906	86.9765	128.906	85.5586	128.906	86.8364	128.906	85.5031	128.906	86.6941	128.906	85.4863	128.906	86.5612	128.906	85.5058	128.906	86.4457	128.906	85.5565	128.906	86.3505	128.906	85.6308	128.906	86.2729	128.906	85.72	128.906	86.2062	128.906	85.8154	128.906	86.1422	128.906	85.9094	128.906	86.0737	128.906	85.9963
134.766	86.999	134.766	86.8404	134.766	87.1296	134.766	86.6614	134.766	87.2261	134.766	86.4701	134.766	87.2837	134.766	86.2752	134.766	87.2998	134.766	86.0857	134.766	87.274	134.766	85.9105	134.766	87.2094	134.766	85.7577	134.766	87.1122	134.766	85.6351	134.766	86.9922	134.766	85.5484	134.766	86.8614	134.766	85.5015	134.766	86.7331	134.766	85.4953	134.766	86.6182	134.766	85.5275	134.766	86.5231	134.766	85.5928	134.766	86.4481	134.766	85.6834	134.766	86.3873	134.766	85.7901	134.766	86.3317	134.766	85.9031	134.766	86.2718	134.766	86.0134	134.766	86.2003	134.766	86.114
137.695	87.0234	137.695	86.8602	137.695	87.1576	137.695	86.6758	137.695	87.2561	137.695	86.4792	137.695	87.3139	137.695	86.2796	137.695	87.3284	137.695	86.0866	137.695	87.2995	137.695	85.9095	137.695	87.2305	137.695	85.7573	137.695	87.1286	137.695	85.6375	137.695	87.0045	137.695	85.5563	137.695	86.8717	137.695	85.5172	137.695	86.7443	137.695	85.5205	137.695	86.6342	137.695	85.5634	137.695	86.5476	137.695	85.6398	137.695	86.4838	137.695	85.741	137.695	86.4355	137.695	85.8568	137.695	86.3917	137.695	85.9768	137.695	86.3414	137.695	86.0914	137.695	86.2764	137.695	86.1928
143.555	87.0427	143.555	86.8701	143.555	87.1821	143.555	86.6728	143.555	87.2811	143.555	86.4608	143.555	87.3346	143.555	86.2447	143.555	87.3398	143.555	86.0353	143.555	87.2971	143.555	85.8438	143.555	87.2104	143.555	85.6804	143.555	87.0879	143.555	85.5541	143.555	86.942	143.555	85.4717	143.555	86.7886	143.555	85.4369	143.555	86.6446	143.555	85.4493	143.555	86.5244	143.555	85.5045	143.555	86.4361	143.555	85.5944	143.555	86.379	143.555	85.7081	143.555	86.3442	143.555	85.8335	143.555	86.318	143.555	85.9584	143.555	86.2862	143.555	86.0721	143.555	86.2378	143.555	86.1666
149.414	87.1821	149.414	87.0025	149.414	87.3228	149.414	86.7925	149.414	87.4179	149.414	86.5618	149.414	87.4626	149.414	86.3213	149.414	87.4546	149.414	86.083	149.414	87.3947	149.414	85.8592	149.414	87.2872	149.414	85.6621	149.414	87.1408	149.414	85.5033	149.414	86.9687	149.414	85.392	149.414	86.788	149.414	85.3338	149.414	86.6171	149.414	85.3299	149.414	86.4723	149.414	85.376	149.414	86.3633	149.414	85.463	149.414	86.2904	149.414	85.5783	149.414	86.2447	149.414	85.7076	149.414	86.2119	149.414	85.8371	149.414	86.1764	149.414	85.9548	149.414	86.1257	149.414	86.0523
155.273	87.2914	155.273	87.1169	155.273	87.4252	155.273	86.9095	155.273	87.5121	155.273	86.6783	155.273	87.5479	155.273	86.4337	155.273	87.5306	155.273	86.1871	155.273	87.4614	155.273	85.9505	155.273	87.3449	155.273	85.7363	155.273	87.1898	155.273	85.5568	155.273	87.0093	155.273	85.4224	155.273	86.82	155.273	85.3405	155.273	86.6398	155.273	85.3138	155.273	86.4845	155.273	85.3397	155.273	86.3633	155.273	85.4101	155.273	86.2766	155.273	85.5129	155.273	86.2161	155.273	85.634	155.273	86.1687	155.273	85.7593	155.273	86.1201	155.273	85.8768	155.273	86.0586	155.273	85.9779
158.203	87.2993	158.203	87.1267	158.203	87.4307	158.203	86.9207	158.203	87.5148	158.203	86.6905	158.203	87.5474	158.203	86.4464	158.203	87.5269	158.203	86.2	158.203	87.4546	158.203	85.9636	158.203	87.3359	158.203	85.7497	158.203	87.18	158.203	85.5708	158.203	87.001	158.203	85.4376	158.203	86.8162	158.203	85.3577	158.203	86.6438	158.203	85.334	158.203	86.499	158.203	85.3638	158.203	86.3898	158.203	85.4389	158.203	86.3149	158.203	85.5469	158.203	86.2643	158.203	85.6736	158.203	86.2235	158.203	85.8045	158.203	86.1778	158.203	85.9273	158.203	86.1162	158.203	86.0328
164.063	87.3626	164.063	87.1871	164.063	87.4954	164.063	86.9771	164.063	87.579	164.063	86.742	164.063	87.6088	164.063	86.4924	164.063	87.5829	164.063	86.24	164.063	87.5024	164.063	85.9972	164.063	87.3727	164.063	85.7772	164.063	87.2036	164.063	85.5928	164.063	87.0104	164.063	85.4555	164.063	86.8123	164.063	85.3735	164.063	86.6299	164.063	85.3503	164.063	86.4805	164.063	85.3833	164.063	86.3734	164.063	85.464	164.063	86.3068	164.063	85.579	164.063	86.2689	164.063	85.7127	164.063	86.2423	164.063	85.8494	164.063	86.2097	164.063	85.9751	164.063	86.1578	164.063	86.0798
169.922	87.2349	169.922	87.0639	169.922	87.3624	169.922	86.8576	169.922	87.44	169.922	86.6258	169.922	87.4632	169.922	86.3792	169.922	87.4304	169.922	86.13	169.922	87.3432	169.922	85.891	169.922	87.2075	169.922	85.6758	169.922	87.0341	169.922	85.4978	169.922	86.8389	169.922	85.3688	169.922	86.6421	169.922	85.2972	169.922	86.4652	169.922	85.2861	169.922	86.3259	169.922	85.3316	169.922	86.2331	169.922	85.424	169.922	86.184	169.922	85.5483	169.922	86.1654	169.922	85.6876	169.922	86.1583	169.922	85.8252	169.922	86.1441	169.922	85.9471	169.922	86.1083	169.922	86.0431
175.781	87.0905	175.781	86.9119	175.781	87.2222	175.781	86.6948	175.781	87.3007	175.781	86.4494	175.781	87.3217	175.781	86.1874	175.781	87.2839	175.781	85.9219	175.781	87.1896	175.781	85.6675	175.781	87.0453	175.781	85.4396	175.781	86.8628	175.781	85.2536	175.781	86.6592	175.781	85.123	175.781	86.4561	175.781	85.057	175.781	86.2761	175.781	85.0582	175.781	86.1378	175.781	85.1213	175.781	86.0502	175.781	85.2339	175.781	86.0097	175.781	85.3781	175.781	86.0017	175.781	85.5344	175.781	86.0056	175.781	85.6844	175.781	86.0011	175.781	85.8132	175.781	85.9725	175.781	85.9107
181.641	87.1241	181.641	86.9403	181.641	87.2567	181.641	86.7134	181.641	87.3323	181.641	86.4526	181.641	87.3471	181.641	86.1692	181.641	87.3	181.641	85.8763	181.641	87.1937	181.641	85.5888	181.641	87.0349	181.641	85.3237	181.641	86.8359	181.641	85.0991	181.641	86.6145	181.641	84.9319	181.641	86.3932	181.641	84.8353	181.641	86.1955	181.641	84.8149	181.641	86.0407	181.641	84.867	181.641	85.9381	181.641	84.9784	181.641	85.8838	181.641	85.1292	181.641	85.8624	181.641	85.2971	181.641	85.8532	181.641	85.4613	181.641	85.8354	181.641	85.6049	181.641	85.7932	181.641	85.7171
190.43	87.1015	190.43	86.9317	190.43	87.2199	190.43	86.7185	190.43	87.2804	190.43	86.4711	190.43	87.2785	190.43	86.1992	190.43	87.2124	190.43	85.9137	190.43	87.0844	190.43	85.6273	190.43	86.9017	190.43	85.3541	190.43	86.6779	190.43	85.1105	190.43	86.4329	190.43	84.9136	190.43	86.1918	190.43	84.7788	190.43	85.9808	190.43	84.716	190.43	85.8201	190.43	84.7266	190.43	85.7177	190.43	84.8021	190.43	85.6667	190.43	84.9257	190.43	85.6482	190.43	85.0759	190.43	85.639	190.43	85.2312	190.43	85.6178	190.43	85.373	190.43	85.57	190.43	85.4883
196.289	87.0157	196.289	86.8385	196.289	87.1396	196.289	86.6177	196.289	87.2028	196.289	86.364	196.289	87.2001	196.289	86.0894	196.289	87.13	196.289	85.807	196.289	86.9951	196.289	85.5305	196.289	86.8039	196.289	85.2753	196.289	86.5713	196.289	85.0572	196.289	86.3197	196.289	84.8916	196.289	86.077	196.289	84.7911	196.289	85.8718	196.289	84.7619	196.289	85.726	196.289	84.802	196.289	85.6469	196.289	84.9001	196.289	85.625	196.289	85.038	196.289	85.6383	196.289	85.1941	196.289	85.6601	196.289	85.3475	196.289	85.6673	196.289	85.4808	196.289	85.6437	196.289	85.5816
202.148	87.0159	202.148	86.8267	202.148	87.1448	202.148	86.5874	202.148	87.2058	202.148	86.3098	202.148	87.1936	202.148	86.0075	202.148	87.1067	202.148	85.6958	202.148	86.9479	202.148	85.3916	202.148	86.7256	202.148	85.1134	202.148	86.4556	202.148	84.8802	202.148	86.1623	202.148	84.7093	202.148	85.8768	202.148	84.6138	202.148	85.6332	202.148	84.5978	202.148	85.4592	202.148	84.6555	202.148	85.3667	202.148	84.7708	202.148	85.3475	202.148	84.9213	202.148	85.377	202.148	85.0824	202.148	85.4244	202.148	85.2319	202.148	85.4615	202.148	85.3523	202.148	85.4679	202.148	85.4325
210.938	86.9372	210.938	86.7408	210.938	87.0696	210.938	86.4871	210.938	87.1335	210.938	86.1842	210.938	87.1262	210.938	85.8428	210.938	87.0482	210.938	85.4763	210.938	86.9033	210.938	85.1025	210.938	86.7003	210.938	84.7441	210.938	86.4539	210.938	84.4283	210.938	86.1848	210.938	84.1837	210.938	85.9189	210.938	84.0341	210.938	85.6825	210.938	83.9912	210.938	85.4965	210.938	84.0494	210.938	85.3693	210.938	84.1868	210.938	85.2951	210.938	84.3724	210.938	85.2564	210.938	84.5741	210.938	85.2312	210.938	84.7655	210.938	85.1991	210.938	84.929	210.938	85.144	210.938	85.0556
216.797	86.8242	216.797	86.6503	216.797	86.932	216.797	86.4169	216.797	86.969	216.797	86.1318	216.797	86.933	216.797	85.8044	216.797	86.8257	216.797	85.4456	216.797	86.6541	216.797	85.0704	216.797	86.4318	216.797	84.6983	216.797	86.1807	216.797	84.3557	216.797	85.9296	216.797	84.0735	216.797	85.7108	216.797	83.8827	216.797	85.5515	216.797	83.8052	216.797	85.4639	216.797	83.8457	216.797	85.4396	216.797	83.9892	216.797	85.4532	216.797	84.2054	216.797	85.4721	216.797	84.4593	216.797	85.4671	216.797	84.7187	216.797	85.4184	216.797	84.9586	216.797	85.3168	216.797	85.1617
225.586	87.086	225.586	86.9347	225.586	87.1647	225.586	86.7188	225.586	87.1637	225.586	86.4464	225.586	87.0776	225.586	86.1262	225.586	86.9041	225.586	85.768	225.586	86.6459	225.586	85.3845	225.586	86.3141	225.586	84.9935	225.586	85.9314	225.586	84.6196	225.586	85.5362	225.586	84.2947	225.586	85.1809	225.586	84.0535	225.586	84.9216	225.586	83.9254	225.586	84.7965	225.586	83.9233	225.586	84.8063	225.586	84.0379	225.586	84.9118	225.586	84.2392	225.586	85.0539	225.586	84.4868	225.586	85.1765	225.586	84.7399	225.586	85.2408	225.586	84.9637	225.586	85.2271	225.586	85.132
234.375	86.9721	234.375	86.7933	234.375	87.0856	234.375	86.5599	234.375	87.1235	234.375	86.2824	234.375	87.0772	234.375	85.9709	234.375	86.9407	234.375	85.6353	234.375	86.7121	234.375	85.2867	234.375	86.3962	234.375	84.9396	234.375	86.0079	234.375	84.6133	234.375	85.5763	234.375	84.3326	234.375	85.1474	234.375	84.1248	234.375	84.7805	234.375	84.0128	234.375	84.5327	234.375	84.0065	234.375	84.4338	234.375	84.0972	234.375	84.4705	234.375	84.2588	234.375	84.5929	234.375	84.4545	234.375	84.7393	234.375	84.6461	234.375	84.8573	234.375	84.8009	234.375	84.9138	234.375	84.8947
240.234	86.8681	240.234	86.6641	240.234	87.0033	240.234	86.4027	240.234	87.0591	240.234	86.0954	240.234	87.0266	240.234	85.7531	240.234	86.8998	240.234	85.3867	240.234	86.6764	240.234	85.009	240.234	86.3606	240.234	84.6363	240.234	85.9664	240.234	84.291	240.234	85.5214	240.234	84.0014	240.234	85.0711	240.234	83.7982	240.234	84.6764	240.234	83.7054	240.234	84.3987	240.234	83.7305	240.234	84.2745	240.234	83.8587	240.234	84.2959	240.234	84.0563	240.234	84.4143	240.234	84.2807	240.234	84.5653	240.234	84.4909	240.234	84.6926	240.234	84.6538	240.234	84.7591	240.234	84.7468
249.023	86.9378	249.023	86.713	249.023	87.0884	249.023	86.4243	249.023	87.1559	249.023	86.0819	249.023	87.1331	249.023	85.6956	249.023	87.0154	249.023	85.2753	249.023	86.8018	249.023	84.8322	249.023	86.4963	249.023	84.382	249.023	86.11	249.023	83.9481	249.023	85.6645	249.023	83.5628	249.023	85.1947	249.023	83.2644	249.023	84.7487	249.023	83.087	249.023	84.3798	249.023	83.0474	249.023	84.1292	249.023	83.1348	249.023	84.0083	249.023	83.3134	249.023	83.9925	249.023	83.5349	249.023	84.034	249.023	83.7525	249.023	84.0814	249.023	83.9302	249.023	84.0937	249.023	84.0462
257.813	86.8677	257.813	86.6652	257.813	87.0028	257.813	86.4057	257.813	87.0613	257.813	86.0997	257.813	87.0361	257.813	85.7571	257.813	86.9229	257.813	85.387	257.813	86.7215	257.813	84.9987	257.813	86.4368	257.813	84.6047	257.813	86.081	257.813	84.2235	257.813	85.6765	257.813	83.8814	257.813	85.2577	257.813	83.6109	257.813	84.8693	257.813	83.4432	257.813	84.5574	257.813	83.3967	257.813	84.3548	257.813	83.467	257.813	84.2665	257.813	83.6261	257.813	84.2676	257.813	83.8314	257.813	84.3147	257.813	84.0383	257.813	84.3619	257.813	84.2104	257.813	84.3727	257.813	84.3246
266.602	86.5543	266.602	86.3157	266.602	86.7159	266.602	86.0115	266.602	86.7916	266.602	85.654	266.602	86.775	266.602	85.2559	266.602	86.6634	266.602	84.8298	266.602	86.4584	266.602	84.3893	266.602	86.1672	266.602	83.9512	266.602	85.8047	266.602	83.5391	266.602	85.3959	266.602	83.1848	266.602	84.9771	266.602	82.9254	266.602	84.5933	266.602	82.7935	266.602	84.2887	266.602	82.8031	266.602	84.0913	266.602	82.9396	266.602	84.0022	266.602	83.1634	266.602	83.9953	266.602	83.4228	266.602	84.03	266.602	83.6696	266.602	84.0637	266.602	83.8685	266.602	84.0618	266.602	84.0003
278.32	86.5063	278.32	86.3336	278.32	86.5958	278.32	86.0837	278.32	86.5972	278.32	85.7627	278.32	86.5076	278.32	85.3766	278.32	86.3281	278.32	84.9331	278.32	86.065	278.32	84.4435	278.32	85.7323	278.32	83.9281	278.32	85.3536	278.32	83.4205	278.32	84.9634	278.32	82.9699	278.32	84.6038	278.32	82.6355	278.32	84.3151	278.32	82.4681	278.32	84.1221	278.32	82.4858	278.32	84.0245	278.32	82.6619	278.32	83.999	278.32	82.9363	278.32	84.0118	278.32	83.2415	278.32	84.0312	278.32	83.523	278.32	84.0322	278.32	83.7481	278.32	83.9953	278.32	83.9045
287.109	86.5442	287.109	86.4014	287.109	86.6064	287.109	86.1854	287.109	86.5794	287.109	85.9012	287.109	86.4561	287.109	85.5503	287.109	86.2332	287.109	85.1329	287.109	85.9143	287.109	84.6508	287.109	85.5136	287.109	84.1139	287.109	85.0608	287.109	83.5475	287.109	84.6042	287.109	82.999	287.109	84.2072	287.109	82.5389	287.109	83.9308	287.109	82.2447	287.109	83.8053	287.109	82.1678	287.109	83.8121	287.109	82.3024	287.109	83.8948	287.109	82.5872	287.109	83.9895	287.109	82.9394	287.109	84.0482	287.109	83.2878	287.109	84.0449	287.109	83.5872	287.109	83.9688	287.109	83.8163
295.898	86.5656	295.898	86.3852	295.898	86.6706	295.898	86.1478	295.898	86.681	295.898	85.8669	295.898	86.5803	295.898	85.5479	295.898	86.3564	295.898	85.1874	295.898	86.0043	295.898	84.7765	295.898	85.5297	295.898	84.307	295.898	84.9568	295.898	83.781	295.898	84.3386	295.898	83.2197	295.898	83.765	295.898	82.6712	295.898	83.3487	295.898	82.2109	295.898	83.1719	295.898	81.9225	295.898	83.2264	295.898	81.8606	295.898	83.4164	295.898	82.0178	295.898	83.6211	295.898	82.3297	295.898	83.751	295.898	82.7114	295.898	83.7618	295.898	83.0899	295.898	83.6449	295.898	83.4128
307.617	86.4976	307.617	86.265	307.617	86.6495	307.617	85.971	307.617	86.7032	307.617	85.6351	307.617	86.6449	307.617	85.2726	307.617	86.4641	307.617	84.8925	307.617	86.154	307.617	84.4977	307.617	85.7125	307.617	84.0894	307.617	85.1468	307.617	83.6739	307.617	84.4826	307.617	83.2706	307.617	83.7783	307.617	82.9151	307.617	83.1365	307.617	82.6551	307.617	82.6898	307.617	82.5337	307.617	82.5356	307.617	82.568	307.617	82.6614	307.617	82.7363	307.617	82.9516	307.617	82.9858	307.617	83.2674	307.617	83.2521	307.617	83.5091	307.617	83.4762	307.617	83.6275	307.617	83.6118
319.336	86.3841	319.336	86.1566	319.336	86.5268	319.336	85.8598	319.336	86.5717	319.336	85.5095	319.336	86.5097	319.336	85.1195	319.336	86.3351	319.336	84.6994	319.336	86.0456	319.336	84.2549	319.336	85.6428	319.336	83.7916	319.336	85.1339	319.336	83.3215	319.336	84.536	319.336	82.8704	319.336	83.8836	319.336	82.4806	319.336	83.2373	319.336	82.2044	319.336	82.6842	319.336	82.0843	319.336	82.3175	319.336	82.1293	319.336	82.1909	319.336	82.3043	319.336	82.2812	319.336	82.5435	319.336	82.4996	319.336	82.7741	319.336	82.7401	319.336	82.9358	319.336	82.9192	319.336	82.989
331.055	85.9724	331.055	85.7561	331.055	86.1119	331.055	85.4825	331.055	86.1596	331.055	85.1716	331.055	86.1062	331.055	84.8388	331.055	85.9486	331.055	84.4913	331.055	85.6897	331.055	84.1276	331.055	85.339	331.055	83.7425	331.055	84.9141	331.055	83.3362	331.055	84.4429	331.055	82.9228	331.055	83.9641	331.055	82.5358	331.055	83.5233	331.055	82.2247	331.055	83.1638	331.055	82.0387	331.055	82.9123	331.055	82.0027	331.055	82.7722	331.055	82.1004	331.055	82.7244	331.055	82.2805	331.055	82.736	331.055	82.4793	331.055	82.7683	331.055	82.6446	331.055	82.7826	331.055	82.7471
342.773	85.9814	342.773	85.7077	342.773	86.1396	342.773	85.3382	342.773	86.1684	342.773	84.8973	342.773	86.0598	342.773	84.4119	342.773	85.8116	342.773	83.9077	342.773	85.4291	342.773	83.4076	342.773	84.9275	342.773	82.9327	342.773	84.3386	342.773	82.5075	342.773	83.7178	342.773	82.1653	342.773	83.1485	342.773	81.947	342.773	82.7272	342.773	81.8885	342.773	82.5249	342.773	82.0002	342.773	82.5459	342.773	82.2542	342.773	82.7287	342.773	82.5918	342.773	82.9864	342.773	82.944	342.773	83.2439	342.773	83.2506	342.773	83.4487	342.773	83.469	342.773	83.5664	342.773	83.5762
354.492	86.212	354.492	85.9775	354.492	86.3368	354.492	85.6531	354.492	86.3351	354.492	85.2585	354.492	86.1945	354.492	84.8093	354.492	85.9077	354.492	84.3138	354.492	85.4735	354.492	83.7738	354.492	84.8996	354.492	83.1911	354.492	84.2102	354.492	82.579	354.492	83.4571	354.492	81.9765	354.492	82.7326	354.492	81.4569	354.492	82.1613	354.492	81.1174	354.492	81.8503	354.492	81.0351	354.492	81.8197	354.492	81.2132	354.492	81.9911	354.492	81.5712	354.492	82.2502	354.492	81.9917	354.492	82.506	354.492	82.3727	354.492	82.703	354.492	82.6496	354.492	82.8074	354.492	82.7948
366.211	86.5231	366.211	86.2605	366.211	86.6648	366.211	85.8956	366.211	86.6706	366.211	85.4484	366.211	86.5291	366.211	84.9374	366.211	86.2324	366.211	84.3766	366.211	85.7755	366.211	83.775	366.211	85.158	366.211	83.1414	366.211	84.3902	366.211	82.4942	366.211	83.5068	366.211	81.8739	366.211	82.5891	366.211	81.3499	366.211	81.7823	366.211	81.0082	366.211	81.262	366.211	80.9118	366.211	81.1237	366.211	81.0557	366.211	81.2999	366.211	81.3626	366.211	81.6264	366.211	81.7255	366.211	81.9592	366.211	82.0517	366.211	82.2174	366.211	82.282	366.211	82.3655	366.211	82.3888
377.93	86.6075	377.93	86.3504	377.93	86.766	377.93	86.0162	377.93	86.8075	377.93	85.6249	377.93	86.7175	377.93	85.1889	377.93	86.4853	377.93	84.7082	377.93	86.1021	377.93	84.1718	377.93	85.5613	377.93	83.5668	377.93	84.8625	377.93	82.8933	377.93	84.0236	377.93	82.1836	377.93	83.106	377.93	81.5199	377.93	82.2478	377.93	81.0331	377.93	81.66	377.93	80.8524	377.93	81.51	377.93	81.0149	377.93	81.7625	377.93	81.43	377.93	82.2104	377.93	81.9465	377.93	82.6476	377.93	82.4341	377.93	82.955	377.93	82.8114	377.93	83.0869	377.93	83.036
392.578	85.7301	392.578	85.4732	392.578	85.8967	392.578	85.1467	392.578	85.9573	392.578	84.7744	392.578	85.9015	392.578	84.3765	392.578	85.7222	392.578	83.963	392.578	85.4148	392.578	83.5295	392.578	84.9753	392.578	83.0619	392.578	84.4019	392.578	82.5487	392.578	83.6997	392.578	81.998	392.578	82.8925	392.578	81.4529	392.578	82.0436	392.578	80.998	392.578	81.2784	392.578	80.7385	392.578	80.7721	392.578	80.7432	392.578	80.6571	392.578	80.9895	392.578	80.904	392.578	81.3711	392.578	81.3378	392.578	81.757	392.578	81.7648	392.578	82.0395	392.578	82.0553	392.578	82.1495
407.227	85.7553	407.227	85.4725	407.227	85.9265	407.227	85.0995	407.227	85.9696	407.227	84.6589	407.227	85.8737	407.227	84.1692	407.227	85.6327	407.227	83.6386	407.227	85.244	407.227	83.0637	407.227	84.707	407.227	82.4356	407.227	84.0233	407.227	81.756	407.227	83.2026	407.227	81.0592	407.227	82.278	407.227	80.4345	407.227	81.3356	407.227	80.0243	407.227	80.5453	407.227	79.9622	407.227	80.1359	407.227	80.2685	407.227	80.2407	407.227	80.8216	407.227	80.7524	407.227	81.4445	407.227	81.4131	407.227	81.9895	407.227	81.9971	407.227	82.3597	407.227	82.3757	407.227	82.4977
421.875	85.4507	421.875	85.168	421.875	85.6496	421.875	84.834	421.875	85.7413	421.875	84.4821	421.875	85.7141	421.875	84.1318	421.875	85.5653	421.875	83.777	421.875	85.298	421.875	83.3859	421.875	84.9166	421.875	82.9152	421.875	84.4242	421.875	82.3299	421.875	83.8205	421.875	81.6248	421.875	83.102	421.875	80.8475	421.875	82.2677	421.875	80.123	421.875	81.3375	421.875	79.6449	421.875	80.3931	421.875	79.5731	421.875	79.6295	421.875	79.8863	421.875	79.3162	421.875	80.3858	421.875	79.5564	421.875	80.842	421.875	80.1286	421.875	81.0912	421.875	80.6991	421.875	81.0476
436.523	85.1659	436.523	84.8646	436.523	85.3387	436.523	84.4743	436.523	85.3599	436.523	84.0455	436.523	85.222	436.523	83.6257	436.523	84.9323	436.523	83.2371	436.523	84.5122	436.523	82.8634	436.523	83.9994	436.523	82.4586	436.523	83.4489	436.523	81.9728	436.523	82.9272	436.523	81.3809	436.523	82.4894	436.523	80.7079	436.523	82.1446	436.523	80.0488	436.523	81.8413	436.523	79.5641	436.523	81.5008	436.523	79.4038	436.523	81.0837	436.523	79.5812	436.523	80.6446	436.523	79.9459	436.523	80.3252	436.523	80.2977	436.523	80.2429	436.523	80.4948	436.523	80.3561	436.523	80.4932
451.172	86.2507	451.172	85.848	451.172	86.4745	451.172	85.2996	451.172	86.5016	451.172	84.6568	451.172	86.3238	451.172	83.9846	451.172	85.9389	451.172	83.3438	451.172	85.3486	451.172	82.7677	451.172	84.563	451.172	82.2492	451.172	83.6151	451.172	81.7559	451.172	82.5919	451.172	81.26	451.172	81.6649	451.172	80.7663	451.172	81.0524	451.172	80.3243	451.172	80.8528	451.172	80.0165	451.172	80.9331	451.172	79.9136	451.172	81.0666	451.172	80.0193	451.172	81.1155	451.172	80.2581	451.172	81.0701	451.172	80.5216	451.172	80.9898	451.172	80.7272	451.172	80.9208	451.172	80.8499
465.82	85.8989	465.82	85.5431	465.82	86.1266	465.82	85.0928	465.82	86.199	465.82	84.5825	465.82	86.0967	465.82	84.0383	465.82	85.8082	465.82	83.4694	465.82	85.3267	465.82	82.8648	465.82	84.6486	465.82	82.2026	465.82	83.7768	465.82	81.4703	465.82	82.7375	465.82	80.6917	465.82	81.6221	465.82	79.9568	465.82	80.643	465.82	79.4302	465.82	80.1003	465.82	79.2856	465.82	80.1382	465.82	79.5658	465.82	80.5717	465.82	80.1297	465.82	81.1006	465.82	80.7681	465.82	81.5393	465.82	81.3229	465.82	81.8269	465.82	81.7149	465.82	81.9561	465.82	81.9231
483.398	85.2072	483.398	84.8318	483.398	85.4256	483.398	84.3393	483.398	85.4741	483.398	83.7982	483.398	85.3576	483.398	83.2874	483.398	85.0883	483.398	82.8569	483.398	84.6778	483.398	82.4928	483.398	84.1308	483.398	82.1247	483.398	83.4429	483.398	81.6684	483.398	82.6053	483.398	81.0677	483.398	81.6193	483.398	80.324	483.398	80.5318	483.398	79.525	483.398	79.4957	483.398	78.8691	483.398	78.8074	483.398	78.608	483.398	78.7459	483.398	78.8493	483.398	79.2506	483.398	79.4362	483.398	79.9652	483.398	80.1	483.398	80.57	483.398	80.6338	483.398	80.9043	483.398	80.921
500.977	85.1784	500.977	84.8409	500.977	85.3447	500.977	84.3646	500.977	85.3258	500.977	83.8047	500.977	85.1192	500.977	83.2329	500.977	84.7293	500.977	82.711	500.977	84.1639	500.977	82.2569	500.977	83.4319	500.977	81.834	500.977	82.5432	500.977	81.3797	500.977	81.5167	500.977	80.8489	500.977	80.3991	500.977	80.2488	500.977	79.2983	500.977	79.6603	500.977	78.411	500.977	79.2336	500.977	77.9812	500.977	79.1211	500.977	78.134	500.977	79.3592	500.977	78.7414	500.977	79.8261	500.977	79.5209	500.977	80.3301	500.977	80.2181	500.977	80.7049	500.977	80.679	500.977	80.8401
518.555	85.4965	518.555	85.2435	518.555	85.5159	518.555	84.7695	518.555	85.3136	518.555	84.1284	518.555	84.9152	518.555	83.4271	518.555	84.3574	518.555	82.8077	518.555	83.6918	518.555	82.3752	518.555	82.9903	518.555	82.1199	518.555	82.337	518.555	81.9297	518.555	81.7909	518.555	81.6784	518.555	81.3308	518.555	81.297	518.555	80.8369	518.555	80.8049	518.555	80.152	518.555	80.323	518.555	79.2153	518.555	80.0481	518.555	78.2821	518.555	80.1322	518.555	78.0368	518.555	80.5328	518.555	78.821	518.555	81.0317	518.555	80.0046	518.555	81.3806	518.555	80.9347	518.555	81.3881
536.133	85.6498	536.133	85.2845	536.133	85.7356	536.133	84.6468	536.133	85.5378	536.133	83.7551	536.133	85.0552	536.133	82.6644	536.133	84.2977	536.133	81.5076	536.133	83.301	536.133	80.5163	536.133	82.1584	536.133	79.9215	536.133	81.0657	536.133	79.7434	536.133	80.3073	536.133	79.769	536.133	80.0503	536.133	79.7682	536.133	80.1212	536.133	79.6478	536.133	80.1587	536.133	79.478	536.133	79.9221	536.133	79.449	536.133	79.4574	536.133	79.7294	536.133	79.1548	536.133	80.2851	536.133	79.45	536.133	80.8909	536.133	80.2186	536.133	81.3	536.133	80.9585	536.133	81.3448
553.711	84.917	553.711	84.6089	553.711	85.0131	553.711	84.0981	553.711	84.891	553.711	83.3933	553.711	84.5503	553.711	82.5026	553.711	83.9957	553.711	81.4457	553.711	83.2359	553.711	80.282	553.711	82.2883	553.711	79.1392	553.711	81.1963	553.711	78.1976	553.711	80.0647	553.711	77.5846	553.711	79.0935	553.711	77.2732	553.711	78.5153	553.711	77.1476	553.711	78.3848	553.711	77.1536	553.711	78.5033	553.711	77.3463	553.711	78.6484	553.711	77.7907	553.711	78.7716	553.711	78.4276	553.711	78.9629	553.711	79.0733	553.711	79.2683	553.711	79.5359	553.711	79.5755	553.711	79.7032
574.219	84.09	574.219	83.6561	574.219	84.2951	574.219	83.0256	574.219	84.2579	574.219	82.2563	574.219	83.978	574.219	81.4235	574.219	83.4674	574.219	80.5901	574.219	82.7547	574.219	79.7718	574.219	81.8859	574.219	78.9333	574.219	80.9167	574.219	78.0226	574.219	79.8964	574.219	77.0178	574.219	78.8566	574.219	75.9743	574.219	77.8353	574.219	75.0841	574.219	76.9689	574.219	74.6956	574.219	76.5781	574.219	75.0974	574.219	76.9492	574.219	76.1654	574.219	77.9008	574.219	77.4779	574.219	78.9507	574.219	78.6803	574.219	79.7477	574.219	79.5789	574.219	80.1387	574.219	80.0797
594.727	85.9764	594.727	85.4814	594.727	86.1517	594.727	84.6994	594.727	85.996	594.727	83.6952	594.727	85.5177	594.727	82.5817	594.727	84.7506	594.727	81.5212	594.727	83.771	594.727	80.6688	594.727	82.7263	594.727	80.0672	594.727	81.8386	594.727	79.6066	594.727	81.2839	594.727	79.104	594.727	80.9789	594.727	78.3975	594.727	80.5751	594.727	77.4002	594.727	79.6847	594.727	76.2069	594.727	78.1337	594.727	75.3813	594.727	76.5853	594.727	75.8708	594.727	76.9808	594.727	77.5625	594.727	78.9698	594.727	79.4039	594.727	80.6527	594.727	80.7836	594.727	81.4913	594.727	81.5072
615.234	87.5412	615.234	87.1087	615.234	87.667	615.234	86.3873	615.234	87.4842	615.234	85.4257	615.234	86.997	615.234	84.3206	615.234	86.215	615.234	83.222	615.234	85.166	615.234	82.297	615.234	83.9336	615.234	81.6445	615.234	82.7206	615.234	81.235	615.234	81.8558	615.234	80.9441	615.234	81.5513	615.234	80.6225	615.234	81.5966	615.234	80.1385	615.234	81.5361	615.234	79.4221	615.234	81.0325	615.234	78.5825	615.234	80.0775	615.234	78.0963	615.234	79.2822	615.234	78.5622	615.234	79.6003	615.234	79.7829	615.234	80.7041	615.234	80.9814	615.234	81.5364	615.234	81.6359
638.672	87.9213	638.672	87.4248	638.672	88.0794	638.672	86.6025	638.672	87.8951	638.672	85.48	638.672	87.3717	638.672	84.1116	638.672	86.5218	638.672	82.6105	638.672	85.3716	638.672	81.182	638.672	83.9771	638.672	80.0959	638.672	82.4672	638.672	79.5178	638.672	81.1052	638.672	79.3456	638.672	80.2311	638.672	79.3017	638.672	79.9257	638.672	79.1366	638.672	79.84	638.672	78.7503	638.672	79.5666	638.672	78.3092	638.672	79.0506	638.672	78.3411	638.672	78.8484	638.672	79.2629	638.672	79.6521	638.672	80.662	638.672	81.0235	638.672	81.8249	638.672	82.0565	638.672	82.3398
659.18	86.9176	659.18	86.5288	659.18	86.993	659.18	85.8398	659.18	86.7528	659.18	84.8825	659.18	86.1987	659.18	83.7186	659.18	85.3353	659.18	82.4462	659.18	84.1792	659.18	81.1958	659.18	82.7854	659.18	80.1007	659.18	81.3023	659.18	79.2537	659.18	80.0271	659.18	78.6707	659.18	79.2707	659.18	78.2622	659.18	78.9661	659.18	77.836	659.18	78.6526	659.18	77.1883	659.18	77.9333	659.18	76.3063	659.18	76.8946	659.18	75.7021	659.18	76.5045	659.18	76.2503	659.18	77.5527	659.18	77.7451	659.18	79.0183	659.18	79.1644	659.18	79.9015	659.18	79.9427
682.617	86.7976	682.617	86.4325	682.617	86.8279	682.617	85.7286	682.617	86.5328	682.617	84.6958	682.617	85.9239	682.617	83.3807	682.617	85.0089	682.617	81.9068	682.617	83.7853	682.617	80.4953	682.617	82.2579	682.617	79.3728	682.617	80.5319	682.617	78.5864	682.617	79.0093	682.617	78.0085	682.617	78.3233	682.617	77.5245	682.617	78.4772	682.617	77.0698	682.617	78.7153	682.617	76.5275	682.617	78.4274	682.617	75.8003	682.617	77.4135	682.617	75.1997	682.617	76.1542	682.617	75.6526	682.617	76.3204	682.617	77.2858	682.617	78.059	682.617	78.9377	682.617	79.4726	682.617	79.7707
706.055	86.8686	706.055	86.4587	706.055	86.967	706.055	85.7204	706.055	86.7716	706.055	84.6422	706.055	86.2864	706.055	83.2283	706.055	85.4843	706.055	81.5456	706.055	84.3019	706.055	79.8343	706.055	82.6637	706.055	78.5688	706.055	80.5703	706.055	78.065	706.055	78.385	706.055	78.0079	706.055	77.18	706.055	77.8743	706.055	77.4343	706.055	77.3883	706.055	77.964	706.055	76.4955	706.055	77.8069	706.055	75.3271	706.055	76.668	706.055	74.5261	706.055	75.0707	706.055	75.318	706.055	75.4794	706.055	77.427	706.055	77.9432	706.055	79.3224	706.055	79.7593	706.055	80.197
732.422	86.4108	732.422	86.3059	732.422	86.281	732.422	85.9217	732.422	85.9594	732.422	85.2221	732.422	85.4682	732.422	84.1808	732.422	84.7925	732.422	82.7904	732.422	83.8736	732.422	81.1033	732.422	82.6068	732.422	79.3326	732.422	80.8402	732.422	77.9441	732.422	78.4369	732.422	77.3979	732.422	75.7792	732.422	77.5814	732.422	74.9969	732.422	77.9471	732.422	76.5902	732.422	78.0066	732.422	77.9136	732.422	77.4157	732.422	77.8671	732.422	75.9878	732.422	76.2511	732.422	74.2516	732.422	74.0178	732.422	74.3466	732.422	74.5533	732.422	76.1036	732.422	76.4916	732.422	77.095
758.789	87.4414	758.789	87.306	758.789	87.3244	758.789	86.8797	758.789	87.0063	758.789	86.1481	758.789	86.5216	758.789	85.1119	758.789	85.8598	758.789	83.7718	758.789	84.9643	758.789	82.1311	758.789	83.7604	758.789	80.251	758.789	82.1867	758.789	78.3769	758.789	80.2284	758.789	77.0279	758.789	78.029	758.789	76.623	758.789	76.3087	758.789	76.8632	758.789	76.3825	758.789	77.0586	758.789	77.748	758.789	76.7293	758.789	78.6816	758.789	75.8508	758.789	78.5048	758.789	75.3422	758.789	77.7528	758.789	76.5014	758.789	78.01	758.789	78.3323	758.789	79.0649	758.789	79.3337
785.156	87.5264	785.156	87.3987	785.156	87.4469	785.156	87.0088	785.156	87.2037	785.156	86.3113	785.156	86.8097	785.156	85.2935	785.156	86.239	785.156	84.0032	785.156	85.4337	785.156	82.5698	785.156	84.3163	785.156	81.1809	785.156	82.8032	785.156	79.9865	785.156	80.8622	785.156	79.0177	785.156	78.6928	785.156	78.2523	785.156	77.0133	785.156	77.7359	785.156	76.6821	785.156	77.4794	785.156	77.3283	785.156	77.2108	785.156	77.7684	785.156	76.5044	785.156	77.2093	785.156	75.4979	785.156	75.9177	785.156	75.796	785.156	76.2211	785.156	77.585	785.156	77.9937	785.156	78.6325
811.523	87.8745	811.523	87.6655	811.523	87.7982	811.523	87.145	811.523	87.4562	811.523	86.2716	811.523	86.8891	811.523	85.0164	811.523	86.1594	811.523	83.4138	811.523	85.304	811.523	81.623	811.523	84.2843	811.523	79.9597	811.523	82.9919	811.523	78.7804	811.523	81.3163	811.523	78.2037	811.523	79.2801	811.523	78.0412	811.523	77.3651	811.523	78.0405	811.523	76.6941	811.523	78.0103	811.523	77.2208	811.523	77.7452	811.523	77.3995	811.523	77.0422	811.523	76.5645	811.523	76.1044	811.523	75.7297	811.523	76.058	811.523	76.4915	811.523	77.2013	811.523	77.7304	811.523	78.0358
840.82	87.5703	840.82	87.1092	840.82	87.7235	840.82	86.339	840.82	87.5931	840.82	85.2689	840.82	87.2299	840.82	83.9075	840.82	86.6915	840.82	82.2656	840.82	86.0127	840.82	80.3946	840.82	85.191	840.82	78.5187	840.82	84.1941	840.82	77.1961	840.82	82.9526	840.82	76.9082	840.82	81.2868	840.82	77.2797	840.82	78.8583	840.82	77.6414	840.82	75.8747	840.82	77.6683	840.82	75.6317	840.82	77.1974	840.82	77.714	840.82	76.061	840.82	78.3368	840.82	74.5923	840.82	77.4069	840.82	74.7849	840.82	77.0641	840.82	76.856	840.82	78.0627	840.82	78.2428
870.117	87.341	870.117	87.0098	870.117	87.3159	870.117	86.3347	870.117	86.9526	870.117	85.3256	870.117	86.3189	870.117	83.9826	870.117	85.5138	870.117	82.3174	870.117	84.6236	870.117	80.3493	870.117	83.7085	870.117	78.0429	870.117	82.8632	870.117	75.4032	870.117	82.2682	870.117	73.5585	870.117	81.9637	870.117	74.7093	870.117	81.5634	870.117	76.9467	870.117	80.5747	870.117	78.3157	870.117	79.0054	870.117	78.5229	870.117	77.6365	870.117	77.58	870.117	76.9282	870.117	75.8112	870.117	76.5467	870.117	75.2566	870.117	77.1263	870.117	77.1164	870.117	78.3335	870.117	78.5257
902.344	87.5525	902.344	87.364	902.344	87.3046	902.344	86.769	902.344	86.7024	902.344	85.8493	902.344	85.933	902.344	84.6756	902.344	85.173	902.344	83.2837	902.344	84.4301	902.344	81.6857	902.344	83.5159	902.344	79.8757	902.344	82.1935	902.344	77.8082	902.344	80.4158	902.344	75.4616	902.344	78.6589	902.344	73.5806	902.344	77.8995	902.344	74.3156	902.344	78.3972	902.344	76.7044	902.344	79.416	902.344	78.4021	902.344	80.0739	902.344	78.6809	902.344	79.7362	902.344	77.3373	902.344	78.6508	902.344	75.4834	902.344	78.4399	902.344	76.7269	902.344	79.1307	902.344	78.7631
931.641	87.5502	931.641	87.2238	931.641	87.3295	931.641	86.409	931.641	86.5959	931.641	85.2252	931.641	85.4964	931.641	83.8146	931.641	84.2702	931.641	82.3147	931.641	83.1244	931.641	80.8352	931.641	82.0721	931.641	79.4047	931.641	80.9684	931.641	77.9128	931.641	79.7728	931.641	76.1565	931.641	78.688	931.641	74.1189	931.641	77.8008	931.641	72.9029	931.641	76.9909	931.641	74.2088	931.641	76.8329	931.641	76.3427	931.641	77.7316	931.641	77.4528	931.641	78.2143	931.641	77.1312	931.641	77.3154	931.641	76.0122	931.641	76.3943	931.641	76.1086	931.641	77.0291	931.641	77.1276
966.797	87.2922	966.797	87.0607	966.797	86.9333	966.797	86.3298	966.797	86.0564	966.797	85.2693	966.797	84.9051	966.797	84.0044	966.797	83.7845	966.797	82.5384	966.797	82.8417	966.797	80.8148	966.797	81.9337	966.797	78.9169	966.797	80.7871	966.797	77.2921	966.797	79.2859	966.797	76.41	966.797	77.5723	966.797	75.8492	966.797	75.9514	966.797	74.9283	966.797	75.492	966.797	74.1733	966.797	76.9418	966.797	74.8788	966.797	78.1518	966.797	76.0233	966.797	77.7635	966.797	76.1081	966.797	76.2528	966.797	75.1801	966.797	75.85	966.797	75.1518	966.797	76.636	966.797	76.3807
999.023	86.9481	999.023	86.473	999.023	86.9038	999.023	85.5821	999.023	86.3108	999.023	84.436	999.023	85.2266	999.023	83.1971	999.023	83.8239	999.023	81.9365	999.023	82.3701	999.023	80.5757	999.023	81.0436	999.023	78.9346	999.023	79.7143	999.023	76.8437	999.023	78.1152	999.023	74.3257	999.023	76.3881	999.023	71.9883	999.023	75.0239	999.023	71.1085	999.023	73.5883	999.023	72.0138	999.023	72.176	999.023	73.6234	999.023	73.6313	999.023	74.9413	999.023	75.4552	999.023	75.5956	999.023	75.0782	999.023	76.0779	999.023	74.218	999.023	77.0219	999.023	76.0826	999.023	77.4309
1,034.18	85.8832	1,034.18	85.3429	1,034.18	86.0351	1,034.18	84.5078	1,034.18	85.7994	1,034.18	83.5173	1,034.18	85.2667	1,034.18	82.494	1,034.18	84.5896	1,034.18	81.5287	1,034.18	83.8979	1,034.18	80.6845	1,034.18	83.1199	1,034.18	79.867	1,034.18	81.9522	1,034.18	78.676	1,034.18	80.2066	1,034.18	76.6094	1,034.18	78.3895	1,034.18	73.4654	1,034.18	77.2536	1,034.18	69.946	1,034.18	76.0703	1,034.18	68.284	1,034.18	74.798	1,034.18	69.2433	1,034.18	75.6983	1,034.18	70.5731	1,034.18	77.0309	1,034.18	70.4184	1,034.18	77.0288	1,034.18	69.846	1,034.18	76.4331	1,034.18	72.9823	1,034.18	76.2529	1,034.18	75.613
1,072.27	85.6574	1,072.27	85.5675	1,072.27	85.4765	1,072.27	85.1973	1,072.27	84.9675	1,072.27	84.5003	1,072.27	84.0811	1,072.27	83.4667	1,072.27	82.9436	1,072.27	82.1647	1,072.27	81.8725	1,072.27	80.7445	1,072.27	81.0179	1,072.27	79.4714	1,072.27	80.0586	1,072.27	78.5483	1,072.27	78.5298	1,072.27	77.7369	1,072.27	76.7442	1,072.27	76.6628	1,072.27	76.1868	1,072.27	75.3555	1,072.27	76.3501	1,072.27	74.2739	1,072.27	75.4479	1,072.27	74.1058	1,072.27	74.3105	1,072.27	74.8162	1,072.27	75.2683	1,072.27	74.9403	1,072.27	75.9221	1,072.27	73.4572	1,072.27	75.5911	1,072.27	72.881	1,072.27	75.6426	1,072.27	74.9008
1,110.35	85.0936	1,110.35	85.207	1,110.35	84.8622	1,110.35	85.1224	1,110.35	84.4224	1,110.35	84.6624	1,110.35	83.6552	1,110.35	83.6883	1,110.35	82.6229	1,110.35	82.1314	1,110.35	81.584	1,110.35	80.0448	1,110.35	80.7155	1,110.35	78.0086	1,110.35	79.8193	1,110.35	77.1086	1,110.35	78.4599	1,110.35	76.9593	1,110.35	76.4433	1,110.35	76.417	1,110.35	74.2673	1,110.35	75.3501	1,110.35	73.3649	1,110.35	74.2965	1,110.35	75.1174	1,110.35	74.0227	1,110.35	77.0259	1,110.35	74.6637	1,110.35	76.4948	1,110.35	74.8284	1,110.35	74.193	1,110.35	73.0283	1,110.35	74.1293	1,110.35	70.188	1,110.35	74.1419	1,110.35	72.0109
1,148.44	85.5058	1,148.44	85.4953	1,148.44	84.9383	1,148.44	84.914	1,148.44	83.903	1,148.44	83.8963	1,148.44	82.5815	1,148.44	82.6466	1,148.44	81.1562	1,148.44	81.2212	1,148.44	79.7508	1,148.44	79.2872	1,148.44	78.4852	1,148.44	76.3768	1,148.44	77.4253	1,148.44	73.2057	1,148.44	76.1751	1,148.44	72.7193	1,148.44	74.2568	1,148.44	73.7307	1,148.44	72.9619	1,148.44	74.1484	1,148.44	73.7765	1,148.44	74.0612	1,148.44	74.147	1,148.44	73.9639	1,148.44	74.4282	1,148.44	74.3473	1,148.44	75.2038	1,148.44	74.8341	1,148.44	73.9281	1,148.44	74.2248	1,148.44	71.6341	1,148.44	72.3933	1,148.44	71.7094	1,148.44	71.5896
1,189.45	85.9302	1,189.45	85.5031	1,189.45	85.5521	1,189.45	84.413	1,189.45	84.4028	1,189.45	82.9145	1,189.45	82.6765	1,189.45	81.2457	1,189.45	80.6536	1,189.45	79.4899	1,189.45	78.6085	1,189.45	77.4018	1,189.45	76.8756	1,189.45	74.5012	1,189.45	75.7312	1,189.45	70.8321	1,189.45	74.6727	1,189.45	68.285	1,189.45	72.6157	1,189.45	68.0777	1,189.45	69.1481	1,189.45	68.9086	1,189.45	66.49	1,189.45	70.4665	1,189.45	67.9024	1,189.45	72.0126	1,189.45	71.7712	1,189.45	72.8539	1,189.45	73.3484	1,189.45	72.8121	1,189.45	72.0492	1,189.45	71.8747	1,189.45	71.4135	1,189.45	70.7335	1,189.45	71.7914	1,189.45	71.0134
1,230.47	85.9062	1,230.47	85.4318	1,230.47	85.6337	1,230.47	84.3128	1,230.47	84.6699	1,230.47	82.7244	1,230.47	83.2393	1,230.47	80.8134	1,230.47	81.6172	1,230.47	78.7644	1,230.47	79.8989	1,230.47	76.7229	1,230.47	78.0955	1,230.47	74.2901	1,230.47	76.4344	1,230.47	70.7259	1,230.47	75.174	1,230.47	65.8881	1,230.47	73.9733	1,230.47	61.9288	1,230.47	72.2623	1,230.47	63.2919	1,230.47	70.6015	1,230.47	67.5657	1,230.47	69.7065	1,230.47	70.9705	1,230.47	70.6138	1,230.47	72.9578	1,230.47	73.6841	1,230.47	73.7587	1,230.47	74.1566	1,230.47	73.5557	1,230.47	72.7406	1,230.47	72.934	1,230.47	72.8355	1,230.47	72.9344
1,274.41	86.0496	1,274.41	85.7093	1,274.41	85.7289	1,274.41	84.7693	1,274.41	84.7496	1,274.41	83.2516	1,274.41	83.2398	1,274.41	81.1928	1,274.41	81.448	1,274.41	78.8965	1,274.41	79.6954	1,274.41	76.9058	1,274.41	78.1794	1,274.41	74.9387	1,274.41	76.7895	1,274.41	71.8069	1,274.41	75.3143	1,274.41	68.2856	1,274.41	73.4936	1,274.41	68.6528	1,274.41	71.319	1,274.41	67.9991	1,274.41	70.7688	1,274.41	62.001	1,274.41	70.4207	1,274.41	66.2066	1,274.41	68.5138	1,274.41	72.3156	1,274.41	72.8488	1,274.41	73.8578	1,274.41	74.4162	1,274.41	72.745	1,274.41	73.7718	1,274.41	72.0175	1,274.41	74.1626	1,274.41	73.6139
1,318.36	85.2783	1,318.36	85.3984	1,318.36	84.8247	1,318.36	84.9542	1,318.36	84.0117	1,318.36	83.7132	1,318.36	82.6192	1,318.36	81.6249	1,318.36	80.5858	1,318.36	78.9016	1,318.36	78.1949	1,318.36	76.3061	1,318.36	76.0359	1,318.36	74.2931	1,318.36	74.6473	1,318.36	71.1268	1,318.36	73.7799	1,318.36	63.6926	1,318.36	72.5886	1,318.36	62.1052	1,318.36	70.6692	1,318.36	66.8333	1,318.36	69.4635	1,318.36	66.7141	1,318.36	70.1243	1,318.36	64.5327	1,318.36	70.3096	1,318.36	68.6501	1,318.36	71.1473	1,318.36	71.7624	1,318.36	71.7873	1,318.36	71.6064	1,318.36	70.7943	1,318.36	69.6778	1,318.36	70.3298	1,318.36	69.5937
1,365.23	84.7034	1,365.23	84.9022	1,365.23	84.2109	1,365.23	84.5882	1,365.23	83.2455	1,365.23	83.3401	1,365.23	81.6207	1,365.23	80.964	1,365.23	79.4587	1,365.23	77.632	1,365.23	77.0566	1,365.23	74.1348	1,365.23	74.6719	1,365.23	72.1601	1,365.23	72.7189	1,365.23	70.986	1,365.23	71.9882	1,365.23	67.5711	1,365.23	71.966	1,365.23	57.3031	1,365.23	70.3085	1,365.23	59.5374	1,365.23	65.902	1,365.23	63.9371	1,365.23	67.355	1,365.23	60.3553	1,365.23	67.4436	1,365.23	63.0368	1,365.23	67.1752	1,365.23	69.6019	1,365.23	71.7142	1,365.23	71.4744	1,365.23	71.5703	1,365.23	69.7176	1,365.23	69.4139	1,365.23	67.7042
1,415.04	84.7695	1,415.04	84.658	1,415.04	84.1549	1,415.04	83.869	1,415.04	82.6188	1,415.04	82.087	1,415.04	80.2601	1,415.04	79.1285	1,415.04	77.4684	1,415.04	75.146	1,415.04	74.5618	1,415.04	70.1869	1,415.04	71.6628	1,415.04	66.9618	1,415.04	68.7641	1,415.04	67.8559	1,415.04	67.064	1,415.04	66.0636	1,415.04	68.4349	1,415.04	60.2263	1,415.04	69.2233	1,415.04	59.3078	1,415.04	67.6357	1,415.04	62.611	1,415.04	64.9415	1,415.04	62.5051	1,415.04	62.2249	1,415.04	61.9722	1,415.04	66.8424	1,415.04	67.0435	1,415.04	68.9527	1,415.04	69.9992	1,415.04	69.9062	1,415.04	70.0287	1,415.04	69.5742	1,415.04	69.0851
1,464.84	85.0639	1,464.84	84.2109	1,464.84	84.6422	1,464.84	82.6905	1,464.84	82.7819	1,464.84	80.8685	1,464.84	79.7861	1,464.84	78.4135	1,464.84	76.1341	1,464.84	74.9845	1,464.84	72.151	1,464.84	70.2398	1,464.84	68.8959	1,464.84	62.6663	1,464.84	67.9281	1,464.84	58.3907	1,464.84	67.3987	1,464.84	60.399	1,464.84	66.3609	1,464.84	57.9255	1,464.84	65.9495	1,464.84	57.3921	1,464.84	64.9506	1,464.84	62.4	1,464.84	61.8746	1,464.84	63.2943	1,464.84	62.3458	1,464.84	62.2533	1,464.84	60.8333	1,464.84	65.3933	1,464.84	65.4644	1,464.84	68.1104	1,464.84	68.9084	1,464.84	68.5869	1,464.84	68.7971	1,464.84	68.2794
1,514.65	85.3072	1,514.65	84.4631	1,514.65	84.7329	1,514.65	82.588	1,514.65	82.685	1,514.65	80.295	1,514.65	79.2316	1,514.65	77.5725	1,514.65	74.3865	1,514.65	73.8323	1,514.65	68.4763	1,514.65	69.0679	1,514.65	65.451	1,514.65	62.5578	1,514.65	67.208	1,514.65	43.0428	1,514.65	68.0277	1,514.65	56.9724	1,514.65	67.2587	1,514.65	60.0309	1,514.65	65.5183	1,514.65	62.8836	1,514.65	63.1088	1,514.65	65.3307	1,514.65	62.4498	1,514.65	64.6332	1,514.65	62.3596	1,514.65	62.7842	1,514.65	59.2265	1,514.65	64.8098	1,514.65	59.7902	1,514.65	66.7209	1,514.65	65.74	1,514.65	67.3848	1,514.65	68.308	1,514.65	68.0223
1,570.31	85.4114	1,570.31	84.5535	1,570.31	84.8875	1,570.31	82.3343	1,570.31	82.8672	1,570.31	79.004	1,570.31	78.9775	1,570.31	75.2953	1,570.31	72.2364	1,570.31	71.5704	1,570.31	62.4874	1,570.31	67.8113	1,570.31	65.0567	1,570.31	63.5347	1,570.31	67.5157	1,570.31	54.6601	1,570.31	67.5327	1,570.31	52.3514	1,570.31	67.1657	1,570.31	55.3942	1,570.31	66.904	1,570.31	60.223	1,570.31	64.8983	1,570.31	61.2379	1,570.31	62.6261	1,570.31	58.8362	1,570.31	60.1972	1,570.31	53.4663	1,570.31	54.3503	1,570.31	57.4529	1,570.31	62.2096	1,570.31	64.46	1,570.31	66.9168	1,570.31	67.3774	1,570.31	68.4953	1,570.31	68.1205
1,623.05	84.8366	1,623.05	84.3357	1,623.05	84.32	1,623.05	82.5304	1,623.05	82.5092	1,623.05	79.1845	1,623.05	78.4868	1,623.05	75.0833	1,623.05	70.2711	1,623.05	71.4479	1,623.05	60.1138	1,623.05	67.7279	1,623.05	66.2549	1,623.05	63.545	1,623.05	68.9732	1,623.05	52.5438	1,623.05	69.8316	1,623.05	57.2049	1,623.05	69.0713	1,623.05	59.0483	1,623.05	68.4794	1,623.05	54.1607	1,623.05	67.6407	1,623.05	58.6596	1,623.05	66.561	1,623.05	61.1076	1,623.05	63.2093	1,623.05	58.0724	1,623.05	54.8668	1,623.05	56.4706	1,623.05	58.8905	1,623.05	62.6539	1,623.05	65.7013	1,623.05	66.3703	1,623.05	67.7626	1,623.05	67.3678
1,681.64	84.4369	1,681.64	83.465	1,681.64	84.2228	1,681.64	81.3235	1,681.64	82.4397	1,681.64	78.2969	1,681.64	78.1011	1,681.64	75.3914	1,681.64	69.1126	1,681.64	72.6235	1,681.64	69.0307	1,681.64	68.1602	1,681.64	71.7259	1,681.64	64.8921	1,681.64	70.6359	1,681.64	63.2531	1,681.64	69.6191	1,681.64	56.4854	1,681.64	69.2428	1,681.64	60.1653	1,681.64	69.2428	1,681.64	58.8299	1,681.64	68.8861	1,681.64	59.2066	1,681.64	68.164	1,681.64	62.409	1,681.64	67.6562	1,681.64	62.5964	1,681.64	61.7174	1,681.64	62.9743	1,681.64	47.1189	1,681.64	64.6577	1,681.64	65.1223	1,681.64	67.4087	1,681.64	68.9806	1,681.64	68.9249
1,740.23	84.3833	1,740.23	82.948	1,740.23	84.2679	1,740.23	80.9696	1,740.23	82.1337	1,740.23	78.8823	1,740.23	77.5172	1,740.23	75.4264	1,740.23	67.9748	1,740.23	69.9225	1,740.23	68.3135	1,740.23	63.6863	1,740.23	72.7614	1,740.23	64.8493	1,740.23	72.794	1,740.23	66.5709	1,740.23	71.9018	1,740.23	62.9738	1,740.23	71.0945	1,740.23	60.8051	1,740.23	70.6451	1,740.23	62.7873	1,740.23	70.4108	1,740.23	60.6874	1,740.23	67.4581	1,740.23	59.6685	1,740.23	69.8843	1,740.23	65.2358	1,740.23	67.7067	1,740.23	65.221	1,740.23	57.1944	1,740.23	63.3027	1,740.23	66.7765	1,740.23	63.0822	1,740.23	69.5009	1,740.23	67.0842
1,801.76	85.1018	1,801.76	84.0992	1,801.76	84.2569	1,801.76	81.546	1,801.76	81.4067	1,801.76	77.7768	1,801.76	75.6673	1,801.76	71.8083	1,801.76	59.565	1,801.76	60.6297	1,801.76	69.4022	1,801.76	60.0841	1,801.76	73.4417	1,801.76	63.9594	1,801.76	73.0382	1,801.76	67.5689	1,801.76	72.2478	1,801.76	67.2026	1,801.76	73.2386	1,801.76	62.7989	1,801.76	73.021	1,801.76	64.1512	1,801.76	71.6743	1,801.76	66.4495	1,801.76	69.6206	1,801.76	60.8519	1,801.76	64.8595	1,801.76	61.3484	1,801.76	66.3966	1,801.76	63.1123	1,801.76	56.9802	1,801.76	60.331	1,801.76	65.9458	1,801.76	61.6101	1,801.76	69.5944	1,801.76	66.8593
1,866.21	85.228	1,866.21	83.5564	1,866.21	85.1613	1,866.21	81.0035	1,866.21	82.5465	1,866.21	77.7645	1,866.21	75.6845	1,866.21	72.9041	1,866.21	53.5771	1,866.21	61.5396	1,866.21	72.8406	1,866.21	62.3942	1,866.21	75.1211	1,866.21	65.1763	1,866.21	73.595	1,866.21	64.843	1,866.21	70.5994	1,866.21	70.0011	1,866.21	72.5574	1,866.21	69.8653	1,866.21	72.6873	1,866.21	68.8301	1,866.21	70.5924	1,866.21	70.342	1,866.21	70.4632	1,866.21	66.7616	1,866.21	65.1819	1,866.21	53.6907	1,866.21	65.2807	1,866.21	62.4209	1,866.21	54.6356	1,866.21	59.2176	1,866.21	66.4026	1,866.21	63.0974	1,866.21	69.713	1,866.21	68.2731
1,930.66	83.4961	1,930.66	82.6718	1,930.66	83.9877	1,930.66	81.3666	1,930.66	82.2305	1,930.66	77.1224	1,930.66	75.8596	1,930.66	66.4782	1,930.66	61.1023	1,930.66	60.8386	1,930.66	73.8581	1,930.66	69.3901	1,930.66	76.5876	1,930.66	72.4824	1,930.66	76.5462	1,930.66	70.2254	1,930.66	72.8131	1,930.66	69.5675	1,930.66	69.666	1,930.66	71.0961	1,930.66	73.671	1,930.66	69.3448	1,930.66	72.3678	1,930.66	71.6257	1,930.66	71.9256	1,930.66	71.4356	1,930.66	69.8007	1,930.66	65.0073	1,930.66	68.1501	1,930.66	64.7119	1,930.66	58.9794	1,930.66	56.9884	1,930.66	70.3545	1,930.66	61.6167	1,930.66	70.7654	1,930.66	66.2235
2,000.98	84.3008	2,000.98	83.4801	2,000.98	83.7713	2,000.98	80.9172	2,000.98	81.3557	2,000.98	75.5537	2,000.98	74.6429	2,000.98	60.8976	2,000.98	63.0714	2,000.98	65.6257	2,000.98	75.3346	2,000.98	70.8775	2,000.98	77.4066	2,000.98	73.4268	2,000.98	76.9356	2,000.98	72.5207	2,000.98	73.7728	2,000.98	70.075	2,000.98	68.8701	2,000.98	69.4572	2,000.98	72.9182	2,000.98	67.843	2,000.98	73.5756	2,000.98	70.2436	2,000.98	71.2232	2,000.98	71.0321	2,000.98	67.9063	2,000.98	65.8824	2,000.98	64.4359	2,000.98	54.0967	2,000.98	53.3434	2,000.98	44.4295	2,000.98	70.7509	2,000.98	58.1661	2,000.98	71.8477	2,000.98	66.2553
2,071.29	85.412	2,071.29	84.5026	2,071.29	84.1285	2,071.29	80.2698	2,071.29	80.9971	2,071.29	70.7737	2,071.29	73.8369	2,071.29	65.6862	2,071.29	64.8554	2,071.29	71.6995	2,071.29	75.0964	2,071.29	72.2776	2,071.29	77.3693	2,071.29	72.7109	2,071.29	77.3748	2,071.29	72.4443	2,071.29	75.3314	2,071.29	70.4636	2,071.29	71.32	2,071.29	70.6252	2,071.29	72.9187	2,071.29	69.372	2,071.29	74.1602	2,071.29	62.3865	2,071.29	71.9182	2,071.29	67.3975	2,071.29	68.7249	2,071.29	69.4148	2,071.29	60.6442	2,071.29	65.9876	2,071.29	56.3852	2,071.29	53.8867	2,071.29	70.118	2,071.29	59.8103	2,071.29	71.3098	2,071.29	65.2328
2,144.53	85.0414	2,144.53	83.5387	2,144.53	84.5416	2,144.53	79.737	2,144.53	81.3952	2,144.53	73.5852	2,144.53	72.8655	2,144.53	68.8801	2,144.53	71.3537	2,144.53	73.1918	2,144.53	76.6178	2,144.53	75.2949	2,144.53	76.6776	2,144.53	74.1116	2,144.53	75.5192	2,144.53	73.4488	2,144.53	74.034	2,144.53	72.6264	2,144.53	70.2379	2,144.53	70.2697	2,144.53	71.898	2,144.53	70.5139	2,144.53	73.9944	2,144.53	71.4751	2,144.53	72.0649	2,144.53	69.2406	2,144.53	69.536	2,144.53	66.6238	2,144.53	63.1198	2,144.53	66.2741	2,144.53	55.3903	2,144.53	62.3375	2,144.53	68.8169	2,144.53	56.7238	2,144.53	70.7979	2,144.53	67.4079
2,217.77	83.846	2,217.77	82.5547	2,217.77	83.8288	2,217.77	79.6195	2,217.77	80.9965	2,217.77	72.1915	2,217.77	72.11	2,217.77	71.7018	2,217.77	72.3941	2,217.77	75.1893	2,217.77	78.0484	2,217.77	75.8571	2,217.77	78.1813	2,217.77	75.3035	2,217.77	76.1438	2,217.77	74.3585	2,217.77	74.0719	2,217.77	72.7345	2,217.77	70.2631	2,217.77	71.0596	2,217.77	66.0964	2,217.77	70.9385	2,217.77	72.5961	2,217.77	70.1546	2,217.77	71.9621	2,217.77	69.1431	2,217.77	69.2375	2,217.77	68.111	2,217.77	61.5216	2,217.77	66.6152	2,217.77	60.3179	2,217.77	60.2896	2,217.77	69.1671	2,217.77	59.9826	2,217.77	69.5752	2,217.77	65.567
2,296.88	84.5712	2,296.88	83.1552	2,296.88	84.0477	2,296.88	79.5199	2,296.88	80.8404	2,296.88	74.1772	2,296.88	71.5852	2,296.88	77.0508	2,296.88	73.0486	2,296.88	77.906	2,296.88	78.4837	2,296.88	75.6165	2,296.88	79.2399	2,296.88	73.7313	2,296.88	77.3854	2,296.88	73.2174	2,296.88	73.8784	2,296.88	73.5437	2,296.88	70.1732	2,296.88	73.2598	2,296.88	66.6637	2,296.88	70.5259	2,296.88	69.8676	2,296.88	68.418	2,296.88	72.2608	2,296.88	70.7223	2,296.88	69.2421	2,296.88	70.2178	2,296.88	64.33	2,296.88	68.0157	2,296.88	64.6992	2,296.88	65.2732	2,296.88	66.2859	2,296.88	56.1098	2,296.88	68.27	2,296.88	65.259
2,378.91	85.3641	2,378.91	84.1329	2,378.91	84.4027	2,378.91	79.4252	2,378.91	81.0574	2,378.91	75.2959	2,378.91	70.9335	2,378.91	77.8945	2,378.91	73.9292	2,378.91	78.1675	2,378.91	78.8617	2,378.91	77.6053	2,378.91	79.5639	2,378.91	76.7708	2,378.91	77.9044	2,378.91	74.764	2,378.91	74.1349	2,378.91	71.3655	2,378.91	69.8276	2,378.91	70.1297	2,378.91	67.8399	2,378.91	70.0259	2,378.91	69.6148	2,378.91	67.4702	2,378.91	71.8466	2,378.91	67.9317	2,378.91	71.4834	2,378.91	69.3553	2,378.91	66.423	2,378.91	68.4604	2,378.91	65.1105	2,378.91	63.3044	2,378.91	67.0038	2,378.91	59.3008	2,378.91	70.1107	2,378.91	65.0182
2,460.94	84.5437	2,460.94	83.0426	2,460.94	83.8895	2,460.94	79.1781	2,460.94	81.2306	2,460.94	77.9122	2,460.94	72.902	2,460.94	77.1691	2,460.94	73.2265	2,460.94	78.4914	2,460.94	78.9398	2,460.94	78.1964	2,460.94	79.25	2,460.94	75.7279	2,460.94	77.2966	2,460.94	75.4947	2,460.94	73.4731	2,460.94	73.6437	2,460.94	67.782	2,460.94	70.7017	2,460.94	70.2779	2,460.94	70.9101	2,460.94	70.475	2,460.94	68.6126	2,460.94	72.2489	2,460.94	69.0495	2,460.94	70.0256	2,460.94	69.1684	2,460.94	68.5574	2,460.94	67.4161	2,460.94	54.8271	2,460.94	63.4643	2,460.94	66.8937	2,460.94	59.1859	2,460.94	71.3737	2,460.94	66.9927
2,548.83	84.138	2,548.83	81.7723	2,548.83	83.7417	2,548.83	79.3848	2,548.83	80.1094	2,548.83	78.3529	2,548.83	73.1926	2,548.83	78.905	2,548.83	74.5569	2,548.83	79.781	2,548.83	79.0312	2,548.83	78.8354	2,548.83	79.9753	2,548.83	76.4842	2,548.83	78.7193	2,548.83	73.549	2,548.83	75.7843	2,548.83	71.7736	2,548.83	72.0192	2,548.83	71.2895	2,548.83	71.3872	2,548.83	71.444	2,548.83	64.3269	2,548.83	68.7843	2,548.83	70.3941	2,548.83	67.3898	2,548.83	69.8439	2,548.83	69.1327	2,548.83	67.9844	2,548.83	67.2807	2,548.83	62.8771	2,548.83	64.5314	2,548.83	63.1732	2,548.83	61.306	2,548.83	70.3698	2,548.83	68.4062
2,639.65	83.9309	2,639.65	82.7084	2,639.65	83.6426	2,639.65	79.6597	2,639.65	80.6243	2,639.65	78.0324	2,639.65	71.9414	2,639.65	80.2286	2,639.65	75.0947	2,639.65	79.8207	2,639.65	79.829	2,639.65	78.2129	2,639.65	80.6121	2,639.65	76.6382	2,639.65	79.1268	2,639.65	74.7662	2,639.65	74.9634	2,639.65	73.2851	2,639.65	66.5173	2,639.65	71.3815	2,639.65	70.2462	2,639.65	69.7214	2,639.65	71.9142	2,639.65	67.7727	2,639.65	67.9502	2,639.65	67.0804	2,639.65	70.5499	2,639.65	68.3032	2,639.65	61.6494	2,639.65	66.8254	2,639.65	57.7517	2,639.65	62.2587	2,639.65	66.278	2,639.65	58.8697	2,639.65	71.0276	2,639.65	66.4864
2,733.4	83.9278	2,733.4	82.6228	2,733.4	83.3808	2,733.4	79.3173	2,733.4	80.9666	2,733.4	79.2807	2,733.4	73.883	2,733.4	79.6954	2,733.4	75.0402	2,733.4	79.4518	2,733.4	80.0026	2,733.4	77.9482	2,733.4	80.6008	2,733.4	75.1255	2,733.4	79.5225	2,733.4	73.5997	2,733.4	76.2344	2,733.4	71.2187	2,733.4	68.3875	2,733.4	67.9958	2,733.4	67.5027	2,733.4	69.1517	2,733.4	69.8629	2,733.4	68.7368	2,733.4	72.3951	2,733.4	66.34	2,733.4	69.6929	2,733.4	68.2911	2,733.4	67.2367	2,733.4	67.2493	2,733.4	53.8419	2,733.4	62.6263	2,733.4	67.3936	2,733.4	56.0255	2,733.4	70.3383	2,733.4	65.5322
2,827.15	84.0966	2,827.15	82.5116	2,827.15	83.5661	2,827.15	79.8567	2,827.15	81.4744	2,827.15	80.2392	2,827.15	75.5118	2,827.15	80.244	2,827.15	75.2026	2,827.15	79.0669	2,827.15	81.0401	2,827.15	77.8208	2,827.15	81.7712	2,827.15	75.538	2,827.15	79.67	2,827.15	72.4588	2,827.15	75.382	2,827.15	72.5473	2,827.15	65.9433	2,827.15	71.9292	2,827.15	67.5097	2,827.15	70.7124	2,827.15	68.2941	2,827.15	69.8213	2,827.15	72.4575	2,827.15	66.8829	2,827.15	70.2536	2,827.15	68.4891	2,827.15	65.8214	2,827.15	68.2813	2,827.15	49.841	2,827.15	63.749	2,827.15	66.5125	2,827.15	58.4988	2,827.15	71.0252	2,827.15	63.8306
2,926.76	83.8733	2,926.76	82.1296	2,926.76	83.1589	2,926.76	80.2876	2,926.76	81.173	2,926.76	80.6208	2,926.76	76.8783	2,926.76	80.2969	2,926.76	75.101	2,926.76	80.2071	2,926.76	80.8383	2,926.76	78.4818	2,926.76	82.0596	2,926.76	75.9539	2,926.76	79.8996	2,926.76	75.5889	2,926.76	75.659	2,926.76	74.5944	2,926.76	69.3387	2,926.76	70.9048	2,926.76	65.6109	2,926.76	69.1183	2,926.76	69.8478	2,926.76	69.0862	2,926.76	70.1343	2,926.76	67.419	2,926.76	71.7475	2,926.76	68.1519	2,926.76	68.0254	2,926.76	68.2165	2,926.76	51.2217	2,926.76	62.5785	2,926.76	66.6031	2,926.76	59.3435	2,926.76	69.5806	2,926.76	62.5468
3,032.23	83.7504	3,032.23	82.034	3,032.23	83.0758	3,032.23	80.3479	3,032.23	80.8786	3,032.23	80.0915	3,032.23	77.4444	3,032.23	81.3425	3,032.23	75.6239	3,032.23	80.3228	3,032.23	80.926	3,032.23	78.0169	3,032.23	82.4939	3,032.23	77.7875	3,032.23	80.3845	3,032.23	74.0374	3,032.23	76.6563	3,032.23	71.0176	3,032.23	73.5601	3,032.23	71.506	3,032.23	65.2405	3,032.23	69.8727	3,032.23	69.0317	3,032.23	70.1954	3,032.23	70.0216	3,032.23	68.582	3,032.23	69.8121	3,032.23	68.7507	3,032.23	67.5296	3,032.23	69.1428	3,032.23	55.2618	3,032.23	64.661	3,032.23	66.5997	3,032.23	54.422	3,032.23	69.307	3,032.23	64.4414
3,137.7	83.6234	3,137.7	82.4623	3,137.7	83.3782	3,137.7	80.6716	3,137.7	81.1825	3,137.7	80.4248	3,137.7	78.345	3,137.7	81.8407	3,137.7	76.6631	3,137.7	80.7916	3,137.7	80.9871	3,137.7	79.7945	3,137.7	83.1513	3,137.7	77.131	3,137.7	81.344	3,137.7	75.8236	3,137.7	77.7959	3,137.7	75.5498	3,137.7	75.8299	3,137.7	73.1442	3,137.7	70.0721	3,137.7	70.6552	3,137.7	69.6466	3,137.7	69.6504	3,137.7	67.7848	3,137.7	68.0767	3,137.7	70.533	3,137.7	69.1038	3,137.7	67.379	3,137.7	69.6536	3,137.7	44.5442	3,137.7	67.0251	3,137.7	65.5057	3,137.7	53.6476	3,137.7	69.0027	3,137.7	63.2924
3,249.02	83.335	3,249.02	81.9416	3,249.02	82.6021	3,249.02	80.1323	3,249.02	81.2132	3,249.02	81.7477	3,249.02	78.742	3,249.02	81.7687	3,249.02	77.6642	3,249.02	81.4706	3,249.02	81.6929	3,249.02	80.282	3,249.02	83.3816	3,249.02	78.4024	3,249.02	81.7741	3,249.02	76.8353	3,249.02	78.3243	3,249.02	73.7776	3,249.02	75.4404	3,249.02	70.6265	3,249.02	71.1036	3,249.02	69.3017	3,249.02	70.506	3,249.02	68.7931	3,249.02	68.7716	3,249.02	66.4749	3,249.02	68.9734	3,249.02	67.7127	3,249.02	65.7483	3,249.02	68.7998	3,249.02	47.8846	3,249.02	65.5604	3,249.02	62.3513	3,249.02	53.6035	3,249.02	67.7936	3,249.02	64.5632
3,363.28	83.1498	3,363.28	81.5552	3,363.28	82.373	3,363.28	80.2783	3,363.28	81.0245	3,363.28	81.8589	3,363.28	79.3109	3,363.28	82.2299	3,363.28	77.5882	3,363.28	81.8374	3,363.28	81.0926	3,363.28	81.015	3,363.28	83.2409	3,363.28	78.6257	3,363.28	82.0033	3,363.28	73.1065	3,363.28	78.5383	3,363.28	71.6702	3,363.28	75.4855	3,363.28	71.9391	3,363.28	71.9925	3,363.28	69.3655	3,363.28	69.4144	3,363.28	69.0411	3,363.28	68.093	3,363.28	66.4604	3,363.28	68.7334	3,363.28	66.6056	3,363.28	62.6599	3,363.28	68.6006	3,363.28	50.6325	3,363.28	65.7042	3,363.28	63.2154	3,363.28	52.0906	3,363.28	68.0323	3,363.28	64.2399
3,483.4	83.5281	3,483.4	81.0162	3,483.4	82.6446	3,483.4	80.7758	3,483.4	80.5323	3,483.4	81.9527	3,483.4	79.7015	3,483.4	82.6948	3,483.4	77.481	3,483.4	82.3738	3,483.4	81.1503	3,483.4	79.7019	3,483.4	83.2592	3,483.4	74.8573	3,483.4	81.3238	3,483.4	74.9462	3,483.4	77.5608	3,483.4	73.0695	3,483.4	73.8598	3,483.4	68.7379	3,483.4	69.8899	3,483.4	68.0246	3,483.4	70.0693	3,483.4	67.572	3,483.4	68.0321	3,483.4	65.7045	3,483.4	65.937	3,483.4	66.394	3,483.4	63.8248	3,483.4	67.4709	3,483.4	56.6417	3,483.4	64.7451	3,483.4	64.0917	3,483.4	40.5159	3,483.4	66.1359	3,483.4	61.2843
3,606.45	82.9081	3,606.45	80.8108	3,606.45	82.8013	3,606.45	81.1705	3,606.45	80.8072	3,606.45	82.4518	3,606.45	79.9382	3,606.45	83.2483	3,606.45	77.9598	3,606.45	82.2967	3,606.45	78.8977	3,606.45	78.424	3,606.45	82.3391	3,606.45	77.6097	3,606.45	81.1548	3,606.45	74.8548	3,606.45	75.3046	3,606.45	70.0431	3,606.45	71.1846	3,606.45	71.5682	3,606.45	65.1176	3,606.45	69.4663	3,606.45	67.354	3,606.45	69.1292	3,606.45	65.3007	3,606.45	67.0274	3,606.45	64.3874	3,606.45	65.5161	3,606.45	61.9456	3,606.45	68.1043	3,606.45	59.6058	3,606.45	64.8184	3,606.45	62.5262	3,606.45	51.5105	3,606.45	66.2247	3,606.45	60.8428
3,732.42	82.3051	3,732.42	80.4718	3,732.42	82.4362	3,732.42	81.9891	3,732.42	80.4193	3,732.42	83.5817	3,732.42	80.1603	3,732.42	83.7821	3,732.42	78.5787	3,732.42	80.4853	3,732.42	77.6387	3,732.42	78.7663	3,732.42	80.6804	3,732.42	76.8765	3,732.42	80.1095	3,732.42	73.9806	3,732.42	75.5645	3,732.42	73.1342	3,732.42	63.8188	3,732.42	70.9032	3,732.42	55.2423	3,732.42	69.2883	3,732.42	48.1283	3,732.42	68.23	3,732.42	64.0831	3,732.42	67.4423	3,732.42	65.3152	3,732.42	66.0538	3,732.42	65.6966	3,732.42	66.9861	3,732.42	59.8552	3,732.42	65.716	3,732.42	63.2668	3,732.42	55.8474	3,732.42	64.8024	3,732.42	61.7871
3,864.26	82.6169	3,864.26	81.7261	3,864.26	83.5567	3,864.26	82.8973	3,864.26	81.965	3,864.26	84.1762	3,864.26	80.5336	3,864.26	83.0162	3,864.26	79.8702	3,864.26	80.3105	3,864.26	77.8404	3,864.26	78.9857	3,864.26	79.6359	3,864.26	77.3257	3,864.26	78.0869	3,864.26	76.7542	3,864.26	72.6992	3,864.26	72.3132	3,864.26	68.6381	3,864.26	70.5199	3,864.26	66.4236	3,864.26	68.9837	3,864.26	62.4587	3,864.26	68.1902	3,864.26	63.7458	3,864.26	67.7648	3,864.26	65.8135	3,864.26	66.3693	3,864.26	65.2157	3,864.26	67.73	3,864.26	59.5704	3,864.26	64.8144	3,864.26	63.1741	3,864.26	57.9192	3,864.26	64.7929	3,864.26	59.2243
3,999.02	83.5749	3,999.02	82.9716	3,999.02	84.3186	3,999.02	83.7234	3,999.02	83.3934	3,999.02	83.9507	3,999.02	81.9366	3,999.02	82.0261	3,999.02	80.5085	3,999.02	80.2044	3,999.02	78.9081	3,999.02	79.2603	3,999.02	80.1495	3,999.02	77.1106	3,999.02	79.0132	3,999.02	72.3796	3,999.02	71.3018	3,999.02	70.956	3,999.02	62.5213	3,999.02	70.9743	3,999.02	67.116	3,999.02	67.2827	3,999.02	62.4798	3,999.02	66.801	3,999.02	61.0325	3,999.02	67.4475	3,999.02	65.6348	3,999.02	64.9849	3,999.02	61.8172	3,999.02	67.5959	3,999.02	60.8804	3,999.02	63.7098	3,999.02	62.0874	3,999.02	60.8541	3,999.02	63.0347	3,999.02	57.1275
4,139.65	84.1813	4,139.65	83.1178	4,139.65	84.5923	4,139.65	83.4332	4,139.65	83.5961	4,139.65	83.6966	4,139.65	82.8654	4,139.65	81.4996	4,139.65	81.205	4,139.65	80.2032	4,139.65	78.6603	4,139.65	78.5451	4,139.65	80.7356	4,139.65	74.5875	4,139.65	79.9576	4,139.65	75.8671	4,139.65	72.9575	4,139.65	72.691	4,139.65	64.8756	4,139.65	68.066	4,139.65	62.0278	4,139.65	67.7031	4,139.65	66.9153	4,139.65	66.1786	4,139.65	65.1959	4,139.65	66.4253	4,139.65	61.1123	4,139.65	64.6204	4,139.65	61.2322	4,139.65	67.0037	4,139.65	58.7611	4,139.65	65.8617	4,139.65	58.7223	4,139.65	61.3874	4,139.65	63.1939	4,139.65	57.8936
4,286.13	85.0964	4,286.13	83.5449	4,286.13	85.9866	4,286.13	83.7473	4,286.13	84.7897	4,286.13	82.6661	4,286.13	83.5342	4,286.13	81.3427	4,286.13	81.2774	4,286.13	79.9472	4,286.13	77.8886	4,286.13	76.5187	4,286.13	79.9854	4,286.13	76.5346	4,286.13	79.7721	4,286.13	70.4521	4,286.13	74.6216	4,286.13	70.5994	4,286.13	71.839	4,286.13	69.9497	4,286.13	67.5168	4,286.13	66.0287	4,286.13	66.9447	4,286.13	65.1938	4,286.13	64.0515	4,286.13	63.9037	4,286.13	64.2784	4,286.13	64.2873	4,286.13	50.0596	4,286.13	66.7793	4,286.13	53.8868	4,286.13	64.5131	4,286.13	55.8615	4,286.13	60.2771	4,286.13	63.889	4,286.13	53.7773
4,438.48	85.5096	4,438.48	84.1712	4,438.48	86.3884	4,438.48	84.4688	4,438.48	85.3838	4,438.48	83.1188	4,438.48	84.6834	4,438.48	81.226	4,438.48	81.8221	4,438.48	79.0866	4,438.48	75.3353	4,438.48	76.8838	4,438.48	77.1905	4,438.48	74.1122	4,438.48	77.6512	4,438.48	74.0666	4,438.48	75.3419	4,438.48	68.4307	4,438.48	73.6538	4,438.48	64.8714	4,438.48	66.345	4,438.48	66.3886	4,438.48	53.4538	4,438.48	64.2121	4,438.48	64.4152	4,438.48	64.5212	4,438.48	59.4707	4,438.48	62.4491	4,438.48	55.4996	4,438.48	64.8702	4,438.48	54.8982	4,438.48	65.05	4,438.48	55.5339	4,438.48	58.1785	4,438.48	59.7472	4,438.48	50.221
4,593.75	86.3511	4,593.75	84.9105	4,593.75	86.9934	4,593.75	85.052	4,593.75	85.3933	4,593.75	83.8802	4,593.75	84.5189	4,593.75	81.964	4,593.75	82.5609	4,593.75	79.0029	4,593.75	76.6458	4,593.75	76.7421	4,593.75	75.9675	4,593.75	74.0895	4,593.75	76.7379	4,593.75	68.4968	4,593.75	75.9157	4,593.75	68.4106	4,593.75	73.8023	4,593.75	67.3659	4,593.75	65.9626	4,593.75	64.5418	4,593.75	42.943	4,593.75	64.3096	4,593.75	57.8707	4,593.75	63.4098	4,593.75	55.5334	4,593.75	61.0856	4,593.75	55.9846	4,593.75	64.4418	4,593.75	57.7571	4,593.75	63.9157	4,593.75	57.2689	4,593.75	57.1799	4,593.75	58.3028	4,593.75	50.4874
4,757.81	86.2673	4,757.81	85.7637	4,757.81	87.2617	4,757.81	85.7349	4,757.81	85.6537	4,757.81	84.0446	4,757.81	84.3029	4,757.81	82.191	4,757.81	81.9285	4,757.81	79.5874	4,757.81	75.6521	4,757.81	75.7441	4,757.81	76.093	4,757.81	71.515	4,757.81	76.8155	4,757.81	72.9194	4,757.81	75.5163	4,757.81	67.2124	4,757.81	74.0933	4,757.81	68.0608	4,757.81	66.2058	4,757.81	64.7762	4,757.81	53.71	4,757.81	64.5754	4,757.81	59.9371	4,757.81	65.2192	4,757.81	59.9991	4,757.81	62.1229	4,757.81	60.4468	4,757.81	65.7894	4,757.81	53.1374	4,757.81	64.1769	4,757.81	58.75	4,757.81	58.8516	4,757.81	58.8845	4,757.81	54.4159
4,924.8	86.488	4,924.8	85.9694	4,924.8	87.0506	4,924.8	85.7758	4,924.8	85.8603	4,924.8	84.1516	4,924.8	84.7206	4,924.8	82.3497	4,924.8	82.1339	4,924.8	79.6863	4,924.8	76.0226	4,924.8	75.2164	4,924.8	76.8844	4,924.8	74.4586	4,924.8	77.6572	4,924.8	72.0924	4,924.8	77.0524	4,924.8	70.5346	4,924.8	70.9939	4,924.8	67.7985	4,924.8	60.1871	4,924.8	66.5414	4,924.8	62.7365	4,924.8	64.94	4,924.8	57.6004	4,924.8	64.7693	4,924.8	61.941	4,924.8	64.0156	4,924.8	60.5461	4,924.8	65.1592	4,924.8	62.6242	4,924.8	64.8958	4,924.8	56.8403	4,924.8	61.3647	4,924.8	60.811	4,924.8	51.1211
5,097.66	86.6284	5,097.66	86.1558	5,097.66	87.2726	5,097.66	85.6712	5,097.66	85.5416	5,097.66	83.9103	5,097.66	84.9568	5,097.66	82.6023	5,097.66	83.3755	5,097.66	79.3074	5,097.66	76.8776	5,097.66	75.3244	5,097.66	74.3432	5,097.66	75.4419	5,097.66	78.8098	5,097.66	73.0373	5,097.66	78.7506	5,097.66	68.1401	5,097.66	70.6903	5,097.66	67.7675	5,097.66	68.2588	5,097.66	64.533	5,097.66	64.5908	5,097.66	65.6756	5,097.66	56.5538	5,097.66	64.0203	5,097.66	59.6862	5,097.66	63.6123	5,097.66	62.2269	5,097.66	66.1672	5,097.66	61.0704	5,097.66	65.4708	5,097.66	54.8155	5,097.66	60.0327	5,097.66	62.4783	5,097.66	48.9416
5,279.3	86.0538	5,279.3	85.9742	5,279.3	86.8714	5,279.3	85.4141	5,279.3	85.5979	5,279.3	84.3275	5,279.3	84.3153	5,279.3	82.6086	5,279.3	83.1469	5,279.3	78.5282	5,279.3	77.5938	5,279.3	77.2479	5,279.3	72.7627	5,279.3	73.8881	5,279.3	79.3479	5,279.3	68.9417	5,279.3	77.8988	5,279.3	69.6887	5,279.3	67.0997	5,279.3	65.9068	5,279.3	69.5986	5,279.3	65.2793	5,279.3	60.2292	5,279.3	63.185	5,279.3	57.3298	5,279.3	64.1072	5,279.3	48.4983	5,279.3	63.6934	5,279.3	56.531	5,279.3	65.8908	5,279.3	62.5571	5,279.3	64.5792	5,279.3	59.4927	5,279.3	63.2138	5,279.3	57.9464	5,279.3	50.4027
5,463.87	86.2706	5,463.87	86.2314	5,463.87	86.8662	5,463.87	85.3846	5,463.87	85.3501	5,463.87	84.72	5,463.87	83.8728	5,463.87	81.8821	5,463.87	82.8903	5,463.87	79.6271	5,463.87	78.8504	5,463.87	75.9864	5,463.87	72.424	5,463.87	73.9374	5,463.87	77.7952	5,463.87	70.927	5,463.87	75.3952	5,463.87	71.8344	5,463.87	66.4327	5,463.87	69.3013	5,463.87	68.3412	5,463.87	66.8878	5,463.87	54.7138	5,463.87	66.5565	5,463.87	58.2629	5,463.87	64.2828	5,463.87	58.9489	5,463.87	63.948	5,463.87	46.5749	5,463.87	67.1989	5,463.87	62.8096	5,463.87	67.441	5,463.87	57.9262	5,463.87	63.4474	5,463.87	58.7099	5,463.87	52.1038
5,657.23	85.6065	5,657.23	85.5375	5,657.23	85.9616	5,657.23	85.5194	5,657.23	84.9394	5,657.23	84.4608	5,657.23	83.3772	5,657.23	81.3626	5,657.23	82.3988	5,657.23	80.5592	5,657.23	79.3782	5,657.23	77.268	5,657.23	74.0699	5,657.23	77.2773	5,657.23	77.608	5,657.23	74.626	5,657.23	74.8859	5,657.23	72.859	5,657.23	71.7465	5,657.23	68.4653	5,657.23	64.5308	5,657.23	68.2114	5,657.23	53.7263	5,657.23	65.45	5,657.23	58.4893	5,657.23	65.6919	5,657.23	60.2966	5,657.23	64.9748	5,657.23	53.7856	5,657.23	67.2628	5,657.23	64.6807	5,657.23	68.0573	5,657.23	55.2329	5,657.23	64.4992	5,657.23	58.3344	5,657.23	55.3736
5,856.45	85.4959	5,856.45	85.5348	5,856.45	85.7319	5,856.45	85.5915	5,856.45	84.3506	5,856.45	83.3525	5,856.45	82.942	5,856.45	81.5014	5,856.45	82.2532	5,856.45	80.2792	5,856.45	80.3354	5,856.45	79.027	5,856.45	76.3773	5,856.45	77.4739	5,856.45	77.1406	5,856.45	72.6927	5,856.45	75.933	5,856.45	72.0607	5,856.45	74.2323	5,856.45	67.1238	5,856.45	64.1341	5,856.45	67.585	5,856.45	41.0833	5,856.45	63.9251	5,856.45	52.9679	5,856.45	63.5722	5,856.45	59.1617	5,856.45	64.6931	5,856.45	56.1118	5,856.45	65.7358	5,856.45	65.553	5,856.45	67.3491	5,856.45	55.2789	5,856.45	63.0403	5,856.45	57.2348	5,856.45	51.0179
6,061.52	85.3857	6,061.52	85.5832	6,061.52	85.5548	6,061.52	85.4294	6,061.52	84.0756	6,061.52	82.7216	6,061.52	82.3484	6,061.52	81.3024	6,061.52	81.9882	6,061.52	79.4121	6,061.52	79.4915	6,061.52	78.8424	6,061.52	74.5381	6,061.52	74.0499	6,061.52	74.6567	6,061.52	72.708	6,061.52	74.8366	6,061.52	68.9324	6,061.52	73.6237	6,061.52	66.7413	6,061.52	62.0118	6,061.52	66.312	6,061.52	48.6089	6,061.52	63.0623	6,061.52	53.4006	6,061.52	64.2044	6,061.52	61.2258	6,061.52	61.5406	6,061.52	60.6708	6,061.52	63.1744	6,061.52	62.9852	6,061.52	67.0152	6,061.52	52.3204	6,061.52	62.9818	6,061.52	58.1736	6,061.52	50.2227
6,275.39	85.7752	6,275.39	86.0042	6,275.39	85.4839	6,275.39	84.6723	6,275.39	83.9651	6,275.39	82.3867	6,275.39	82.4855	6,275.39	81.3845	6,275.39	81.6906	6,275.39	79.3716	6,275.39	79.1707	6,275.39	77.2876	6,275.39	75.6586	6,275.39	75.8685	6,275.39	72.9836	6,275.39	74.072	6,275.39	72.3388	6,275.39	68.2999	6,275.39	71.9121	6,275.39	67.2783	6,275.39	65.4622	6,275.39	64.8172	6,275.39	52.3611	6,275.39	63.7659	6,275.39	44.7436	6,275.39	63.9986	6,275.39	55.6896	6,275.39	61.4814	6,275.39	56.9384	6,275.39	63.3885	6,275.39	60.9482	6,275.39	66.73	6,275.39	57.2509	6,275.39	62.8757	6,275.39	56.6901	6,275.39	47.1444
6,498.05	85.6846	6,498.05	85.7017	6,498.05	85.557	6,498.05	84.1223	6,498.05	83.8942	6,498.05	82.5355	6,498.05	81.9188	6,498.05	81.2951	6,498.05	81.6487	6,498.05	79.7367	6,498.05	80.2702	6,498.05	77.6244	6,498.05	76.8921	6,498.05	76.0425	6,498.05	72.2413	6,498.05	72.3056	6,498.05	71.9681	6,498.05	69.6538	6,498.05	68.5719	6,498.05	66.2966	6,498.05	60.8279	6,498.05	63.2316	6,498.05	56.9183	6,498.05	62.5039	6,498.05	53.9095	6,498.05	63.7731	6,498.05	61.1508	6,498.05	61.5364	6,498.05	53.0932	6,498.05	62.2837	6,498.05	61.1267	6,498.05	65.5122	6,498.05	57.5552	6,498.05	62.8196	6,498.05	54.4045	6,498.05	45.7956
6,726.56	85.7088	6,726.56	85.4511	6,726.56	85.6866	6,726.56	83.7158	6,726.56	84.0352	6,726.56	82.4121	6,726.56	82.0202	6,726.56	81.2458	6,726.56	81.1341	6,726.56	80.2431	6,726.56	79.993	6,726.56	77.6785	6,726.56	75.2262	6,726.56	75.0595	6,726.56	69.6453	6,726.56	71.2055	6,726.56	70.529	6,726.56	69.5831	6,726.56	66.5519	6,726.56	65.8111	6,726.56	61.2126	6,726.56	63.3692	6,726.56	61.097	6,726.56	62.3526	6,726.56	58.3395	6,726.56	62.4558	6,726.56	61.128	6,726.56	60.6637	6,726.56	52.2813	6,726.56	61.4674	6,726.56	56.4124	6,726.56	65.7034	6,726.56	56.3231	6,726.56	62.2604	6,726.56	56.3138	6,726.56	47.4456
6,963.87	85.6436	6,963.87	85.1927	6,963.87	85.3489	6,963.87	83.2836	6,963.87	83.9489	6,963.87	82.1543	6,963.87	81.9332	6,963.87	81.4092	6,963.87	81.2422	6,963.87	80.338	6,963.87	79.9354	6,963.87	76.6099	6,963.87	75.1252	6,963.87	74.9035	6,963.87	71.5152	6,963.87	70.2478	6,963.87	72.4729	6,963.87	68.1813	6,963.87	71.8832	6,963.87	63.2605	6,963.87	62.3967	6,963.87	62.8558	6,963.87	60.8328	6,963.87	61.1744	6,963.87	57.8409	6,963.87	59.7429	6,963.87	59.4114	6,963.87	60.7301	6,963.87	51.342	6,963.87	59.8372	6,963.87	60.3209	6,963.87	63.6308	6,963.87	52.7226	6,963.87	61.7862	6,963.87	54.7974	6,963.87	42.3995
7,209.96	85.6054	7,209.96	84.8154	7,209.96	85.0701	7,209.96	82.8773	7,209.96	83.6679	7,209.96	81.9686	7,209.96	81.8396	7,209.96	81.7667	7,209.96	80.9203	7,209.96	79.5626	7,209.96	79.921	7,209.96	76.7731	7,209.96	76.6887	7,209.96	73.5837	7,209.96	72.0621	7,209.96	69.1112	7,209.96	75.037	7,209.96	66.181	7,209.96	73.0061	7,209.96	61.4287	7,209.96	61.2916	7,209.96	62.0869	7,209.96	59.6523	7,209.96	59.7145	7,209.96	56.3636	7,209.96	59.7023	7,209.96	57.8056	7,209.96	59.8784	7,209.96	42.9267	7,209.96	58.1801	7,209.96	60.354	7,209.96	62.9992	7,209.96	51.5103	7,209.96	60.9151	7,209.96	53.5554	7,209.96	41.1926
7,464.84	85.5319	7,464.84	84.5983	7,464.84	84.5301	7,464.84	82.6113	7,464.84	82.9804	7,464.84	82.2645	7,464.84	81.801	7,464.84	81.6095	7,464.84	80.8466	7,464.84	79.1761	7,464.84	79.4164	7,464.84	76.5413	7,464.84	75.6597	7,464.84	71.6651	7,464.84	72.3912	7,464.84	69.1215	7,464.84	73.8552	7,464.84	64.3848	7,464.84	71.581	7,464.84	62.9998	7,464.84	62.2465	7,464.84	60.0594	7,464.84	55.4832	7,464.84	59.4608	7,464.84	57.5521	7,464.84	58.7286	7,464.84	58.8268	7,464.84	59.5899	7,464.84	52.975	7,464.84	53.6827	7,464.84	59.1881	7,464.84	62.4307	7,464.84	54.3153	7,464.84	60.2461	7,464.84	52.7484	7,464.84	43.8261
7,728.52	85.3254	7,728.52	84.3385	7,728.52	84.2915	7,728.52	82.9342	7,728.52	82.5627	7,728.52	82.6037	7,728.52	81.4902	7,728.52	81.5511	7,728.52	80.3431	7,728.52	79.4292	7,728.52	78.42	7,728.52	74.8428	7,728.52	73.4668	7,728.52	70.9606	7,728.52	71.1573	7,728.52	67.1661	7,728.52	71.1498	7,728.52	64.2069	7,728.52	68.0066	7,728.52	62.132	7,728.52	62.6027	7,728.52	57.4711	7,728.52	57.3911	7,728.52	58.1181	7,728.52	50.4028	7,728.52	56.3258	7,728.52	57.4701	7,728.52	58.1122	7,728.52	51.1273	7,728.52	49.7822	7,728.52	59.261	7,728.52	61.0143	7,728.52	51.4573	7,728.52	58.6831	7,728.52	50.1275	7,728.52	37.3051
8,000.98	85.3716	8,000.98	84.6005	8,000.98	84.3468	8,000.98	83.5723	8,000.98	82.4006	8,000.98	82.4991	8,000.98	81.2728	8,000.98	81.856	8,000.98	80.4755	8,000.98	78.6814	8,000.98	78.4375	8,000.98	74.3483	8,000.98	73.6938	8,000.98	70.156	8,000.98	68.8328	8,000.98	66.6572	8,000.98	64.8691	8,000.98	64.4004	8,000.98	65.8534	8,000.98	60.1768	8,000.98	65.4952	8,000.98	57.856	8,000.98	58.9646	8,000.98	57.5566	8,000.98	44.6458	8,000.98	56.2679	8,000.98	48.7696	8,000.98	58.0803	8,000.98	48.9891	8,000.98	51.905	8,000.98	59.0971	8,000.98	60.385	8,000.98	52.6131	8,000.98	58.425	8,000.98	42.6931	8,000.98	44.1681
8,282.23	85.5042	8,282.23	84.9134	8,282.23	84.7173	8,282.23	83.4876	8,282.23	83.0884	8,282.23	82.2039	8,282.23	81.5496	8,282.23	81.272	8,282.23	79.8269	8,282.23	77.1737	8,282.23	77.3089	8,282.23	74.2342	8,282.23	72.7118	8,282.23	69.4875	8,282.23	66.5868	8,282.23	67.4474	8,282.23	60.1339	8,282.23	62.9758	8,282.23	63.9291	8,282.23	60.2017	8,282.23	61.872	8,282.23	57.047	8,282.23	55.926	8,282.23	58.4213	8,282.23	49.1391	8,282.23	55.9355	8,282.23	49.442	8,282.23	56.9584	8,282.23	50.7575	8,282.23	50.1158	8,282.23	59.4162	8,282.23	60.0894	8,282.23	51.4761	8,282.23	58.6211	8,282.23	38.4478	8,282.23	46.8439
8,575.2	85.782	8,575.2	84.8685	8,575.2	85.0863	8,575.2	83.1892	8,575.2	83.5303	8,575.2	81.986	8,575.2	81.7454	8,575.2	80.0705	8,575.2	79.4276	8,575.2	76.8027	8,575.2	76.4971	8,575.2	72.9887	8,575.2	72.6168	8,575.2	70.2062	8,575.2	66.4412	8,575.2	66.9841	8,575.2	65.4516	8,575.2	64.4171	8,575.2	62.7603	8,575.2	59.435	8,575.2	61.7888	8,575.2	55.5132	8,575.2	52.4064	8,575.2	56.0525	8,575.2	43.4155	8,575.2	55.6345	8,575.2	36.9391	8,575.2	56.8727	8,575.2	47.9128	8,575.2	51.6475	8,575.2	53.814	8,575.2	58.9634	8,575.2	50.2249	8,575.2	57.7318	8,575.2	35.8682	8,575.2	48.334
8,876.95	85.551	8,876.95	84.5631	8,876.95	85.1587	8,876.95	83.1655	8,876.95	83.7803	8,876.95	81.6608	8,876.95	81.8612	8,876.95	79.8169	8,876.95	79.5731	8,876.95	76.5016	8,876.95	76.7664	8,876.95	73.1911	8,876.95	72.1686	8,876.95	70.7885	8,876.95	66.8313	8,876.95	67.1042	8,876.95	67.5692	8,876.95	63.8771	8,876.95	63.2038	8,876.95	58.1858	8,876.95	50.3542	8,876.95	56.7842	8,876.95	40.8643	8,876.95	55.9974	8,876.95	36.0218	8,876.95	55.3616	8,876.95	40.2384	8,876.95	55.2413	8,876.95	49.0552	8,876.95	52.0501	8,876.95	51.0492	8,876.95	57.3537	8,876.95	47.7675	8,876.95	57.0215	8,876.95	42.461	8,876.95	47.159
9,190.43	85.0743	9,190.43	84.3744	9,190.43	85.0178	9,190.43	83.2673	9,190.43	83.8413	9,190.43	81.7435	9,190.43	81.6376	9,190.43	79.6652	9,190.43	79.509	9,190.43	76.0321	9,190.43	76.9524	9,190.43	73.4129	9,190.43	71.4183	9,190.43	69.7518	9,190.43	66.8348	9,190.43	65.5757	9,190.43	65.3635	9,190.43	62.3867	9,190.43	60.3355	9,190.43	56.6124	9,190.43	51.8833	9,190.43	55.9373	9,190.43	52.132	9,190.43	54.2629	9,190.43	37.8742	9,190.43	55.5484	9,190.43	45.5087	9,190.43	53.1173	9,190.43	43.2888	9,190.43	52.0114	9,190.43	49.8334	9,190.43	54.7409	9,190.43	47.779	9,190.43	55.3376	9,190.43	42.4801	9,190.43	46.6571
9,512.7	84.8544	9,512.7	84.4562	9,512.7	84.8557	9,512.7	83.3611	9,512.7	83.7456	9,512.7	81.7768	9,512.7	81.32	9,512.7	79.0247	9,512.7	79.2387	9,512.7	76.2729	9,512.7	76.0771	9,512.7	72.2737	9,512.7	70.0134	9,512.7	68.7584	9,512.7	65.1889	9,512.7	64.6518	9,512.7	62.9146	9,512.7	61.5332	9,512.7	59.2227	9,512.7	53.1942	9,512.7	52.6021	9,512.7	53.7009	9,512.7	52.2561	9,512.7	52.0641	9,512.7	41.3675	9,512.7	53.589	9,512.7	44.8718	9,512.7	50.6709	9,512.7	27.7611	9,512.7	51.5784	9,512.7	52.3568	9,512.7	53.4859	9,512.7	40.9318	9,512.7	53.8892	9,512.7	40.5638	9,512.7	47.4398
9,849.61	85.0803	9,849.61	84.7014	9,849.61	85.066	9,849.61	83.6221	9,849.61	83.7064	9,849.61	81.2741	9,849.61	81.3207	9,849.61	78.7274	9,849.61	78.9683	9,849.61	75.8561	9,849.61	75.4643	9,849.61	71.7569	9,849.61	69.63	9,849.61	66.4842	9,849.61	63.5161	9,849.61	61.4376	9,849.61	61.3323	9,849.61	58.3521	9,849.61	53.2838	9,849.61	49.7648	9,849.61	52.5679	9,849.61	51.3526	9,849.61	54.6414	9,849.61	49.1033	9,849.61	27.8615	9,849.61	51.104	9,849.61	41.799	9,849.61	46.6924	9,849.61	37.2875	9,849.61	50.5825	9,849.61	50.8995	9,849.61	50.5848	9,849.61	44.9045	9,849.61	53.2544	9,849.61	42.4189	9,849.61	46.9236
10,195.3	85.5097	10,195.3	85.0956	10,195.3	85.5043	10,195.3	83.7881	10,195.3	83.8702	10,195.3	80.8679	10,195.3	81.277	10,195.3	78.4288	10,195.3	78.6718	10,195.3	74.8365	10,195.3	75.229	10,195.3	70.8918	10,195.3	69.3049	10,195.3	62.8156	10,195.3	65.2548	10,195.3	58.4953	10,195.3	60.4052	10,195.3	51.4754	10,195.3	56.1742	10,195.3	51.7786	10,195.3	33.5111	10,195.3	44.2673	10,195.3	56.0635	10,195.3	48.4992	10,195.3	33.0946	10,195.3	45.939	10,195.3	35.1789	10,195.3	46.2846	10,195.3	38.9917	10,195.3	44.7373	10,195.3	51.5766	10,195.3	41.6054	10,195.3	49.3995	10,195.3	52.2493	10,195.3	43.0584	10,195.3	47.1363
10,555.7	85.8132	10,555.7	85.2419	10,555.7	85.7282	10,555.7	83.7534	10,555.7	84.0892	10,555.7	80.9754	10,555.7	81.3336	10,555.7	78.2359	10,555.7	78.4221	10,555.7	74.206	10,555.7	74.7093	10,555.7	68.5445	10,555.7	69.4204	10,555.7	62.0769	10,555.7	65.0444	10,555.7	54.6043	10,555.7	58.2805	10,555.7	53.0105	10,555.7	52.492	10,555.7	47.8659	10,555.7	50.9491	10,555.7	43.5567	10,555.7	54.7364	10,555.7	46.9388	10,555.7	43.2855	10,555.7	45.9514	10,555.7	31.1472	10,555.7	47.168	10,555.7	29.0405	10,555.7	43.3224	10,555.7	48.2911	10,555.7	35.8767	10,555.7	47.1146	10,555.7	50.6879	10,555.7	36.2304	10,555.7	47.5685
10,927.7	86.2478	10,927.7	85.3775	10,927.7	86.125	10,927.7	83.7786	10,927.7	84.2891	10,927.7	81.1233	10,927.7	81.3316	10,927.7	78.3193	10,927.7	78.4537	10,927.7	73.3249	10,927.7	74.2029	10,927.7	66.0065	10,927.7	67.563	10,927.7	59.7152	10,927.7	60.6062	10,927.7	52.8363	10,927.7	53.5251	10,927.7	52.9245	10,927.7	49.3301	10,927.7	45.6927	10,927.7	52.5044	10,927.7	41.1726	10,927.7	49.1151	10,927.7	44.3983	10,927.7	43.5657	10,927.7	47.9727	10,927.7	37.1289	10,927.7	46.8832	10,927.7	30.1811	10,927.7	46.9595	10,927.7	43.0197	10,927.7	37.8183	10,927.7	47.6305	10,927.7	47.2104	10,927.7	36.563	10,927.7	45.4851
11,314.5	86.4509	11,314.5	85.8683	11,314.5	86.3155	11,314.5	84.2388	11,314.5	84.4053	11,314.5	81.4705	11,314.5	81.5043	11,314.5	78.3464	11,314.5	78.5901	11,314.5	72.6703	11,314.5	73.6814	11,314.5	64.0748	11,314.5	65.4567	11,314.5	56.2397	11,314.5	58.0832	11,314.5	53.052	11,314.5	55.2567	11,314.5	52.6877	11,314.5	42.7626	11,314.5	50.3688	11,314.5	57.9066	11,314.5	41.2826	11,314.5	59.2762	11,314.5	50.8358	11,314.5	47.8565	11,314.5	46.2492	11,314.5	40.492	11,314.5	46.7142	11,314.5	40.4801	11,314.5	47.8843	11,314.5	41.3767	11,314.5	44.4414	11,314.5	49.5765	11,314.5	44.9386	11,314.5	41.1521	11,314.5	45.4662
11,712.9	86.2836	11,712.9	86.2827	11,712.9	86.0088	11,712.9	84.5585	11,712.9	84.2802	11,712.9	81.6679	11,712.9	81.6952	11,712.9	78.2871	11,712.9	78.2611	11,712.9	72.0542	11,712.9	72.5166	11,712.9	63.6811	11,712.9	64.1191	11,712.9	59.4133	11,712.9	59.6553	11,712.9	58.1279	11,712.9	57.9666	11,712.9	55.3847	11,712.9	48.2366	11,712.9	52.0927	11,712.9	62.0245	11,712.9	48.2192	11,712.9	64.5158	11,712.9	52.1379	11,712.9	47.4872	11,712.9	45.0872	11,712.9	44.5931	11,712.9	49.3417	11,712.9	44.1165	11,712.9	49.7921	11,712.9	47.6765	11,712.9	47.3783	11,712.9	50.233	11,712.9	48.6111	11,712.9	42.8254	11,712.9	47.3272
12,126	86.4187	12,126	86.2715	12,126	85.8524	12,126	84.5044	12,126	84.0448	12,126	81.5737	12,126	81.7588	12,126	78.0661	12,126	77.8218	12,126	70.4469	12,126	72.0662	12,126	63.896	12,126	64.2331	12,126	61.8514	12,126	63.7318	12,126	59.1418	12,126	59.6306	12,126	54.1728	12,126	55.6061	12,126	51.6409	12,126	63.8612	12,126	48.7308	12,126	65.55	12,126	51.3827	12,126	45.1473	12,126	45.2998	12,126	43.1074	12,126	50.605	12,126	43.8099	12,126	48.1044	12,126	47.4397	12,126	42.7228	12,126	42.4331	12,126	48.4395	12,126	41.1576	12,126	45.5399
12,553.7	86.3845	12,553.7	85.9369	12,553.7	86.0182	12,553.7	84.203	12,553.7	84.1599	12,553.7	81.5039	12,553.7	81.7071	12,553.7	77.6104	12,553.7	77.3183	12,553.7	68.9135	12,553.7	72.1956	12,553.7	64.4764	12,553.7	63.6372	12,553.7	62.2902	12,553.7	64.2458	12,553.7	58.0689	12,553.7	58.6784	12,553.7	52.8786	12,553.7	54.9683	12,553.7	52.3845	12,553.7	63.5979	12,553.7	47.5644	12,553.7	65.6968	12,553.7	50.219	12,553.7	47.0515	12,553.7	41.5092	12,553.7	38.2442	12,553.7	51.182	12,553.7	45.9897	12,553.7	45.5624	12,553.7	48.9075	12,553.7	42.8842	12,553.7	42.6558	12,553.7	47.2554	12,553.7	45.3329	12,553.7	47.5402
12,996.1	86.2621	12,996.1	86.0737	12,996.1	85.864	12,996.1	84.0086	12,996.1	84.2704	12,996.1	81.3687	12,996.1	81.5239	12,996.1	76.5794	12,996.1	76.3957	12,996.1	68.5143	12,996.1	71.1548	12,996.1	65.4493	12,996.1	65.4349	12,996.1	61.6912	12,996.1	63.6092	12,996.1	57.88	12,996.1	59.0417	12,996.1	52.7789	12,996.1	56.7242	12,996.1	53.2893	12,996.1	64.366	12,996.1	49.6436	12,996.1	67.1159	12,996.1	50.944	12,996.1	50.9795	12,996.1	45.425	12,996.1	44.094	12,996.1	53.0825	12,996.1	48.9541	12,996.1	48.1824	12,996.1	52.7355	12,996.1	43.8536	12,996.1	47.7799	12,996.1	46.786	12,996.1	46.7518	12,996.1	47.8935
13,453.1	85.7791	13,453.1	86.0638	13,453.1	85.2717	13,453.1	84.1007	13,453.1	84.1195	13,453.1	81.427	13,453.1	81.3739	13,453.1	75.4119	13,453.1	76.1279	13,453.1	67.8633	13,453.1	70.4914	13,453.1	65.1707	13,453.1	65.09	13,453.1	62.3305	13,453.1	62.0876	13,453.1	58.4492	13,453.1	58.8905	13,453.1	53.8541	13,453.1	57.0972	13,453.1	51.5344	13,453.1	65.5443	13,453.1	50.5637	13,453.1	68.1011	13,453.1	48.3189	13,453.1	49.9979	13,453.1	49.8598	13,453.1	47.3825	13,453.1	53.5978	13,453.1	50.7631	13,453.1	45.6264	13,453.1	49.9542	13,453.1	35.4706	13,453.1	46.5833	13,453.1	45.7536	13,453.1	45.1082	13,453.1	45.6605
13,927.7	84.9456	13,927.7	85.5005	13,927.7	84.4817	13,927.7	83.9908	13,927.7	83.7857	13,927.7	81.415	13,927.7	81.1643	13,927.7	74.8419	13,927.7	75.7847	13,927.7	67.9459	13,927.7	69.7512	13,927.7	64.0457	13,927.7	63.7344	13,927.7	63.0547	13,927.7	60.8094	13,927.7	59.7274	13,927.7	55.1222	13,927.7	55.6126	13,927.7	56.6809	13,927.7	51.7858	13,927.7	66.7703	13,927.7	50.9678	13,927.7	68.3889	13,927.7	49.0376	13,927.7	49.8446	13,927.7	49.9927	13,927.7	48.4135	13,927.7	53.9318	13,927.7	50.1446	13,927.7	44.7863	13,927.7	43.4054	13,927.7	38.8915	13,927.7	44.0937	13,927.7	41.5657	13,927.7	41.4693	13,927.7	41.9752
14,419.9	84.1847	14,419.9	84.6381	14,419.9	83.7625	14,419.9	83.7031	14,419.9	83.2342	14,419.9	81.1126	14,419.9	80.5569	14,419.9	74.3224	14,419.9	75.19	14,419.9	68.503	14,419.9	69.4929	14,419.9	63.6673	14,419.9	62.7425	14,419.9	63.4337	14,419.9	59.378	14,419.9	61.3128	14,419.9	49.0686	14,419.9	56.4986	14,419.9	55.2964	14,419.9	52.5452	14,419.9	67.1632	14,419.9	50.4582	14,419.9	67.8742	14,419.9	50.11	14,419.9	50.6549	14,419.9	48.4123	14,419.9	46.8292	14,419.9	53.5786	14,419.9	46.8821	14,419.9	44.7521	14,419.9	42.4467	14,419.9	42.3982	14,419.9	44.4389	14,419.9	42.3628	14,419.9	46.3675	14,419.9	43.4377
14,929.7	83.5308	14,929.7	84.0178	14,929.7	83.3178	14,929.7	83.4752	14,929.7	83.0432	14,929.7	80.5823	14,929.7	79.9474	14,929.7	73.7977	14,929.7	74.5227	14,929.7	67.9986	14,929.7	69.6562	14,929.7	63.3109	14,929.7	62.2068	14,929.7	64.1008	14,929.7	56.3819	14,929.7	61.8448	14,929.7	53.3318	14,929.7	57.8903	14,929.7	53.5483	14,929.7	52.0088	14,929.7	67.2553	14,929.7	53.1331	14,929.7	68.0239	14,929.7	49.9136	14,929.7	49.2477	14,929.7	48.1373	14,929.7	45.9084	14,929.7	52.5244	14,929.7	43.9702	14,929.7	47.4302	14,929.7	43.7905	14,929.7	42.5246	14,929.7	46.3672	14,929.7	41.148	14,929.7	49.5936	14,929.7	45.4657
15,454.1	82.8047	15,454.1	83.7145	15,454.1	83.0713	15,454.1	83.3858	15,454.1	83.1198	15,454.1	79.886	15,454.1	79.2751	15,454.1	73.3544	15,454.1	74.0599	15,454.1	65.491	15,454.1	68.0957	15,454.1	63.2192	15,454.1	57.3152	15,454.1	64.662	15,454.1	46.7893	15,454.1	61.7145	15,454.1	53.514	15,454.1	56.2636	15,454.1	52.6489	15,454.1	50.6513	15,454.1	67.63	15,454.1	53.0721	15,454.1	68.079	15,454.1	47.0893	15,454.1	50.3556	15,454.1	50.876	15,454.1	46.124	15,454.1	52.9023	15,454.1	44.4674	15,454.1	50.2325	15,454.1	45.5524	15,454.1	31.0149	15,454.1	45.3452	15,454.1	42.4429	15,454.1	50.9026	15,454.1	43.3199
15,999	82.0593	15,999	83.4207	15,999	83.2879	15,999	83.2998	15,999	83.3123	15,999	79.1481	15,999	79.0973	15,999	72.7559	15,999	73.5905	15,999	63.0835	15,999	65.6028	15,999	62.5954	15,999	56.6809	15,999	64.366	15,999	53.8098	15,999	61.6908	15,999	47.5953	15,999	56.4707	15,999	50.394	15,999	46.4797	15,999	67.6963	15,999	52.5591	15,999	67.6912	15,999	46.2908	15,999	50.8825	15,999	52.5675	15,999	44.9859	15,999	53.0087	15,999	44.9484	15,999	51.5845	15,999	47.1646	15,999	38.7227	15,999	40.8538	15,999	44.8178	15,999	50.158	15,999	45.6491
16,564.5	81.9614	16,564.5	83.2715	16,564.5	83.6846	16,564.5	83.2135	16,564.5	83.3357	16,564.5	78.48	16,564.5	79.018	16,564.5	71.9289	16,564.5	73.0713	16,564.5	62.8829	16,564.5	61.6084	16,564.5	62.8098	16,564.5	61.1492	16,564.5	64.4884	16,564.5	56.3911	16,564.5	62.087	16,564.5	51.452	16,564.5	57.8089	16,564.5	45.3257	16,564.5	38.9493	16,564.5	67.5755	16,564.5	54.0815	16,564.5	66.7875	16,564.5	44.9366	16,564.5	52.3201	16,564.5	54.3422	16,564.5	44.327	16,564.5	53.1015	16,564.5	40.8793	16,564.5	52.58	16,564.5	50.0525	16,564.5	43.5145	16,564.5	46.7396	16,564.5	49.6728	16,564.5	49.2539	16,564.5	49.1452
17,147.5	82.4926	17,147.5	83.4929	17,147.5	84.4789	17,147.5	83.1154	17,147.5	83.5409	17,147.5	77.725	17,147.5	78.8093	17,147.5	70.3584	17,147.5	71.2691	17,147.5	62.8684	17,147.5	58.7803	17,147.5	63.8123	17,147.5	63.9115	17,147.5	64.8812	17,147.5	59.7796	17,147.5	62.3642	17,147.5	55.7108	17,147.5	59.6765	17,147.5	46.7129	17,147.5	33.7045	17,147.5	66.6462	17,147.5	53.9749	17,147.5	66.4135	17,147.5	43.4025	17,147.5	53.4142	17,147.5	55.3476	17,147.5	45.6947	17,147.5	52.7186	17,147.5	35.0983	17,147.5	51.7581	17,147.5	51.7838	17,147.5	47.6745	17,147.5	49.4449	17,147.5	52.2966	17,147.5	50.0699	17,147.5	52.6005
17,753.9	82.8072	17,753.9	83.6886	17,753.9	85.241	17,753.9	82.9366	17,753.9	83.8863	17,753.9	77.228	17,753.9	78.4762	17,753.9	68.0288	17,753.9	67.9886	17,753.9	64.6669	17,753.9	64.6575	17,753.9	63.3714	17,753.9	66.322	17,753.9	66.0315	17,753.9	61.589	17,753.9	62.3901	17,753.9	60.6988	17,753.9	59.7933	17,753.9	54.1817	17,753.9	43.7931	17,753.9	66.1256	17,753.9	54.0269	17,753.9	65.6753	17,753.9	44.7309	17,753.9	53.3511	17,753.9	56.1239	17,753.9	47.0089	17,753.9	52.03	17,753.9	35.6814	17,753.9	50.8129	17,753.9	52.6269	17,753.9	50.1848	17,753.9	51.8245	17,753.9	53.6074	17,753.9	51.1661	17,753.9	56.1426
18,377.9	83.4672	18,377.9	83.9035	18,377.9	85.3866	18,377.9	82.2913	18,377.9	83.2201	18,377.9	76.4246	18,377.9	77.274	18,377.9	61.4352	18,377.9	63.0093	18,377.9	64.3567	18,377.9	66.4694	18,377.9	62.5624	18,377.9	67.3671	18,377.9	66.2636	18,377.9	65.3791	18,377.9	61.1275	18,377.9	59.4161	18,377.9	57.5856	18,377.9	58.1854	18,377.9	48.5707	18,377.9	63.4667	18,377.9	53.3842	18,377.9	65.0459	18,377.9	47.8815	18,377.9	54.2356	18,377.9	57.0927	18,377.9	48.7667	18,377.9	52.4213	18,377.9	41.2589	18,377.9	46.2713	18,377.9	53.5707	18,377.9	51.1399	18,377.9	54.8069	18,377.9	53.4217	18,377.9	52.7325	18,377.9	58.5172
19,028.3	84.6334	19,028.3	84.0196	19,028.3	85.1631	19,028.3	80.6623	19,028.3	81.3085	19,028.3	73.9184	19,028.3	73.8978	19,028.3	53.9038	19,028.3	46.9383	19,028.3	61.6813	19,028.3	67.9811	19,028.3	61.6763	19,028.3	67.3212	19,028.3	66.5081	19,028.3	60.2118	19,028.3	61.1712	19,028.3	59.0621	19,028.3	56.1008	19,028.3	57.1647	19,028.3	48.6489	19,028.3	62.0367	19,028.3	51.6871	19,028.3	65.5805	19,028.3	48.8035	19,028.3	50.1925	19,028.3	56.4163	19,028.3	34.2968	19,028.3	53.029	19,028.3	35.7564	19,028.3	47.0072	19,028.3	50.2977	19,028.3	50.571	19,028.3	54.124	19,028.3	49.478	19,028.3	52.6217	19,028.3	58.3198
19,699.2	84.9346	19,699.2	83.5217	19,699.2	84.8328	19,699.2	78.4368	19,699.2	79.5076	19,699.2	68.444	19,699.2	69.0801	19,699.2	62.4137	19,699.2	65.3215	19,699.2	63.9093	19,699.2	69.8992	19,699.2	61.9916	19,699.2	67.3547	19,699.2	64.7903	19,699.2	62.9323	19,699.2	60.6008	19,699.2	57.3165	19,699.2	56.5937	19,699.2	55.9061	19,699.2	49.5871	19,699.2	63.1216	19,699.2	51.3535	19,699.2	66.0286	19,699.2	49.4247	19,699.2	53.0319	19,699.2	56.0011	19,699.2	41.2938	19,699.2	52.7587	19,699.2	37.1796	19,699.2	49.6071	19,699.2	46.1889	19,699.2	51.245	19,699.2	54.5434	19,699.2	53.305	19,699.2	51.7819	19,699.2	56.8943
19,998	84.7235	19,998	83.2174	19,998	84.4499	19,998	77.3488	19,998	78.5619	19,998	65.6073	19,998	65.8008	19,998	63.7967	19,998	68.649	19,998	64.7432	19,998	70.0732	19,998	62.4566	19,998	67.8254	19,998	64.0603	19,998	61.1307	19,998	60.281	19,998	57.1686	19,998	56.8536	19,998	56.4925	19,998	50.2314	19,998	62.9073	19,998	50.7334	19,998	65.4019	19,998	50.8635	19,998	53.6322	19,998	52.8006	19,998	48.2452	19,998	58.111	19,998	48.6625	19,998	51.8723	19,998	49.3895	19,998	48.2488	19,998	55.5157	19,998	54.7268	19,998	48.7237	19,998	56.7375
