"SPL Vertical"																																																																							
"On-Axis"		"10°"		"-10°"		"20°"		"-20°"		"30°"		"-30°"		"40°"		"-40°"		"50°"		"-50°"		"60°"		"-60°"		"70°"		"-70°"		"80°"		"-80°"		"90°"		"-90°"		"100°"		"-100°"		"110°"		"-110°"		"120°"		"-120°"		"130°"		"-130°"		"140°"		"-140°"		"150°"		"-150°"		"160°"		"-160°"		"170°"		"-170°"		"180°"	
"Frequency / Hz"	"Sound Pressure Level / dB (re 20 µPa/V)  [2.83  V @ 1. m]"	"Frequency / Hz"	"Sound Pressure Level / dB (re 20 µPa/V)  [2.83  V @ 1. m]"	"Frequency / Hz"	"Sound Pressure Level / dB (re 20 µPa/V)  [2.83  V @ 1. m]"	"Frequency / Hz"	"Sound Pressure Level / dB (re 20 µPa/V)  [2.83  V @ 1. m]"	"Frequency / Hz"	"Sound Pressure Level / dB (re 20 µPa/V)  [2.83  V @ 1. m]"	"Frequency / Hz"	"Sound Pressure Level / dB (re 20 µPa/V)  [2.83  V @ 1. m]"	"Frequency / Hz"	"Sound Pressure Level / dB (re 20 µPa/V)  [2.83  V @ 1. m]"	"Frequency / Hz"	"Sound Pressure Level / dB (re 20 µPa/V)  [2.83  V @ 1. m]"	"Frequency / Hz"	"Sound Pressure Level / dB (re 20 µPa/V)  [2.83  V @ 1. m]"	"Frequency / Hz"	"Sound Pressure Level / dB (re 20 µPa/V)  [2.83  V @ 1. m]"	"Frequency / Hz"	"Sound Pressure Level / dB (re 20 µPa/V)  [2.83  V @ 1. m]"	"Frequency / Hz"	"Sound Pressure Level / dB (re 20 µPa/V)  [2.83  V @ 1. m]"	"Frequency / Hz"	"Sound Pressure Level / dB (re 20 µPa/V)  [2.83  V @ 1. m]"	"Frequency / Hz"	"Sound Pressure Level / dB (re 20 µPa/V)  [2.83  V @ 1. m]"	"Frequency / Hz"	"Sound Pressure Level / dB (re 20 µPa/V)  [2.83  V @ 1. m]"	"Frequency / Hz"	"Sound Pressure Level / dB (re 20 µPa/V)  [2.83  V @ 1. m]"	"Frequency / Hz"	"Sound Pressure Level / dB (re 20 µPa/V)  [2.83  V @ 1. m]"	"Frequency / Hz"	"Sound Pressure Level / dB (re 20 µPa/V)  [2.83  V @ 1. m]"	"Frequency / Hz"	"Sound Pressure Level / dB (re 20 µPa/V)  [2.83  V @ 1. m]"	"Frequency / Hz"	"Sound Pressure Level / dB (re 20 µPa/V)  [2.83  V @ 1. m]"	"Frequency / Hz"	"Sound Pressure Level / dB (re 20 µPa/V)  [2.83  V @ 1. m]"	"Frequency / Hz"	"Sound Pressure Level / dB (re 20 µPa/V)  [2.83  V @ 1. m]"	"Frequency / Hz"	"Sound Pressure Level / dB (re 20 µPa/V)  [2.83  V @ 1. m]"	"Frequency / Hz"	"Sound Pressure Level / dB (re 20 µPa/V)  [2.83  V @ 1. m]"	"Frequency / Hz"	"Sound Pressure Level / dB (re 20 µPa/V)  [2.83  V @ 1. m]"	"Frequency / Hz"	"Sound Pressure Level / dB (re 20 µPa/V)  [2.83  V @ 1. m]"	"Frequency / Hz"	"Sound Pressure Level / dB (re 20 µPa/V)  [2.83  V @ 1. m]"	"Frequency / Hz"	"Sound Pressure Level / dB (re 20 µPa/V)  [2.83  V @ 1. m]"	"Frequency / Hz"	"Sound Pressure Level / dB (re 20 µPa/V)  [2.83  V @ 1. m]"	"Frequency / Hz"	"Sound Pressure Level / dB (re 20 µPa/V)  [2.83  V @ 1. m]"	"Frequency / Hz"	"Sound Pressure Level / dB (re 20 µPa/V)  [2.83  V @ 1. m]"	"Frequency / Hz"	"Sound Pressure Level / dB (re 20 µPa/V)  [2.83  V @ 1. m]"	"Frequency / Hz"	"Sound Pressure Level / dB (re 20 µPa/V)  [2.83  V @ 1. m]"	"Frequency / Hz"	"Sound Pressure Level / dB (re 20 µPa/V)  [2.83  V @ 1. m]"	"Frequency / Hz"	"Sound Pressure Level / dB (re 20 µPa/V)  [2.83  V @ 1. m]"	"Frequency / Hz"	"Sound Pressure Level / dB (re 20 µPa/V)  [2.83  V @ 1. m]"
20.5078	48.3019	20.5078	48.1012	20.5078	48.5189	20.5078	47.9267	20.5078	48.7426	20.5078	47.7873	20.5078	48.964	20.5078	47.6909	20.5078	49.1754	20.5078	47.643	20.5078	49.3705	20.5078	47.6466	20.5078	49.5449	20.5078	47.7018	20.5078	49.6955	20.5078	47.8057	20.5078	49.8212	20.5078	47.953	20.5078	49.9219	20.5078	48.136	20.5078	49.9985	20.5078	48.3452	20.5078	50.0523	20.5078	48.5707	20.5078	50.0843	20.5078	48.8022	20.5078	50.0948	20.5078	49.0307	20.5078	50.0829	20.5078	49.248	20.5078	50.0469	20.5078	49.4475	20.5078	49.9845	20.5078	49.6238	20.5078	49.8937	20.5078	49.7733
21.9727	49.2378	21.9727	49.0224	21.9727	49.4621	21.9727	48.8253	21.9727	49.6863	21.9727	48.6553	21.9727	49.902	21.9727	48.5204	21.9727	50.1021	21.9727	48.4271	21.9727	50.2804	21.9727	48.3794	21.9727	50.4324	21.9727	48.3791	21.9727	50.555	21.9727	48.4249	21.9727	50.6466	21.9727	48.5134	21.9727	50.707	21.9727	48.6388	21.9727	50.737	21.9727	48.7939	21.9727	50.7385	21.9727	48.9707	21.9727	50.7134	21.9727	49.1614	21.9727	50.6639	21.9727	49.3584	21.9727	50.5917	21.9727	49.5556	21.9727	50.4981	21.9727	49.7474	21.9727	50.3839	21.9727	49.9294	21.9727	50.25	21.9727	50.0979
23.4375	47.4593	23.4375	47.1069	23.4375	47.7998	23.4375	46.7536	23.4375	48.1176	23.4375	46.4106	23.4375	48.403	23.4375	46.0883	23.4375	48.6473	23.4375	45.7962	23.4375	48.8432	23.4375	45.5425	23.4375	48.9848	23.4375	45.3337	23.4375	49.0681	23.4375	45.1751	23.4375	49.0905	23.4375	45.0705	23.4375	49.0511	23.4375	45.0224	23.4375	48.9511	23.4375	45.0324	23.4375	48.7931	23.4375	45.1007	23.4375	48.5812	23.4375	45.2268	23.4375	48.3212	23.4375	45.4089	23.4375	48.02	23.4375	45.6438	23.4375	47.6861	23.4375	45.9261	23.4375	47.3297	23.4375	46.2474	23.4375	46.9624	23.4375	46.5971
24.9023	51.1194	24.9023	50.8188	24.9023	51.4111	24.9023	50.5182	24.9023	51.6853	24.9023	50.2259	24.9023	51.9336	24.9023	49.9501	24.9023	52.1481	24.9023	49.6978	24.9023	52.3222	24.9023	49.4759	24.9023	52.4502	24.9023	49.2902	24.9023	52.5278	24.9023	49.1461	24.9023	52.5525	24.9023	49.0482	24.9023	52.5231	24.9023	49.0002	24.9023	52.4404	24.9023	49.005	24.9023	52.3065	24.9023	49.064	24.9023	52.1253	24.9023	49.1771	24.9023	51.9018	24.9023	49.3424	24.9023	51.6422	24.9023	49.5556	24.9023	51.3538	24.9023	49.81	24.9023	51.0451	24.9023	50.0969	24.9023	50.7255	24.9023	50.4058
26.3672	51.9993	26.3672	51.6605	26.3672	52.3248	26.3672	51.319	26.3672	52.6265	26.3672	50.9851	26.3672	52.8946	26.3672	50.6685	26.3672	53.1201	26.3672	50.3773	26.3672	53.2957	26.3672	50.1187	26.3672	53.4154	26.3672	49.8984	26.3672	53.4749	26.3672	49.7213	26.3672	53.472	26.3672	49.5914	26.3672	53.4061	26.3672	49.5122	26.3672	53.2789	26.3672	49.4867	26.3672	53.094	26.3672	49.5174	26.3672	52.8566	26.3672	49.6059	26.3672	52.574	26.3672	49.7521	26.3672	52.255	26.3672	49.954	26.3672	51.9097	26.3672	50.2068	26.3672	51.5495	26.3672	50.5033	26.3672	51.1866	26.3672	50.8337
27.832	54.3453	27.832	54.0959	27.832	54.5897	27.832	53.8496	27.832	54.8207	27.832	53.6131	27.832	55.0295	27.832	53.3919	27.832	55.2077	27.832	53.1902	27.832	55.3479	27.832	53.0107	27.832	55.4438	27.832	52.8556	27.832	55.4906	27.832	52.7266	27.832	55.4854	27.832	52.6255	27.832	55.4275	27.832	52.5543	27.832	55.3182	27.832	52.5159	27.832	55.1608	27.832	52.5135	27.832	54.9609	27.832	52.5503	27.832	54.7255	27.832	52.629	27.832	54.4635	27.832	52.7509	27.832	54.1848	27.832	52.9154	27.832	53.9002	27.832	53.1194	27.832	53.6207	27.832	53.3572
29.2969	55.8678	29.2969	55.6175	29.2969	56.113	29.2969	55.3705	29.2969	56.344	29.2969	55.1341	29.2969	56.5514	29.2969	54.914	29.2969	56.7265	29.2969	54.7143	29.2969	56.8614	29.2969	54.5377	29.2969	56.9494	29.2969	54.3858	29.2969	56.9859	29.2969	54.2597	29.2969	56.9681	29.2969	54.1605	29.2969	56.8956	29.2969	54.0897	29.2969	56.7704	29.2969	54.0493	29.2969	56.5969	29.2969	54.0417	29.2969	56.3819	29.2969	54.0695	29.2969	56.1341	29.2969	54.1351	29.2969	55.8639	29.2969	54.2399	29.2969	55.5827	29.2969	54.3845	29.2969	55.302	29.2969	54.5675	29.2969	55.033	29.2969	54.7856
30.7617	58.2516	30.7617	58.0329	30.7617	58.4646	30.7617	57.8159	30.7617	58.664	30.7617	57.6065	30.7617	58.8415	30.7617	57.4096	30.7617	58.9893	30.7617	57.2285	30.7617	59.0999	30.7617	57.0656	30.7617	59.1673	30.7617	56.9221	30.7617	59.1869	30.7617	56.7988	30.7617	59.156	30.7617	56.6966	30.7617	59.0744	30.7617	56.6165	30.7617	58.944	30.7617	56.5604	30.7617	58.7692	30.7617	56.5309	30.7617	58.5571	30.7617	56.5311	30.7617	58.3164	30.7617	56.5645	30.7617	58.0579	30.7617	56.6341	30.7617	57.793	30.7617	56.7421	30.7617	57.5336	30.7617	56.8892	30.7617	57.2906	30.7617	57.0734
32.2266	60.2081	32.2266	60.0062	32.2266	60.4069	32.2266	59.8081	32.2266	60.5949	32.2266	59.6197	32.2266	60.764	32.2266	59.4458	32.2266	60.9066	32.2266	59.2895	32.2266	61.0157	32.2266	59.1527	32.2266	61.0858	32.2266	59.0364	32.2266	61.1127	32.2266	58.9411	32.2266	61.0942	32.2266	58.8671	32.2266	61.0304	32.2266	58.8148	32.2266	60.9234	32.2266	58.785	32.2266	60.7776	32.2266	58.7793	32.2266	60.5993	32.2266	58.7992	32.2266	60.3965	32.2266	58.8467	32.2266	60.178	32.2266	58.9234	32.2266	59.9535	32.2266	59.0303	32.2266	59.7322	32.2266	59.1673	32.2266	59.5229	32.2266	59.3327
33.6914	62.2405	33.6914	62.0693	33.6914	62.4078	33.6914	61.9002	33.6914	62.5647	33.6914	61.7379	33.6914	62.7043	33.6914	61.5862	33.6914	62.8198	33.6914	61.4477	33.6914	62.905	33.6914	61.324	33.6914	62.9548	33.6914	61.2161	33.6914	62.9657	33.6914	61.1244	33.6914	62.9356	33.6914	61.0495	33.6914	62.8651	33.6914	60.992	33.6914	62.7563	33.6914	60.9529	33.6914	62.614	33.6914	60.9336	33.6914	62.4444	33.6914	60.9357	33.6914	62.2557	33.6914	60.9613	33.6914	62.0567	33.6914	61.0124	33.6914	61.8564	33.6914	61.0902	33.6914	61.6635	33.6914	61.1957	33.6914	61.4854	33.6914	61.3282
35.1562	63.9604	35.1562	63.8043	35.1562	64.1119	35.1562	63.6492	35.1562	64.253	35.1562	63.4993	35.1562	64.3775	35.1562	63.3582	35.1562	64.4792	35.1562	63.2284	35.1562	64.5527	35.1562	63.1115	35.1562	64.5933	35.1562	63.0085	35.1562	64.5979	35.1562	62.9201	35.1562	64.5652	35.1562	62.8469	35.1562	64.4955	35.1562	62.7898	35.1562	64.3915	35.1562	62.7499	35.1562	64.2574	35.1562	62.7286	35.1562	64.0995	35.1562	62.7275	35.1562	63.9252	35.1562	62.7486	35.1562	63.7423	35.1562	62.7935	35.1562	63.5592	35.1562	62.8633	35.1562	63.3834	35.1562	62.9586	35.1562	63.2215	35.1562	63.0787
36.6211	65.6076	36.6211	65.4738	36.6211	65.7377	36.6211	65.341	36.6211	65.8587	36.6211	65.2135	36.6211	65.9649	36.6211	65.0942	36.6211	66.0508	36.6211	64.9853	36.6211	66.1114	36.6211	64.8884	36.6211	66.1429	36.6211	64.804	36.6211	66.1426	36.6211	64.7325	36.6211	66.1094	36.6211	64.6741	36.6211	66.0443	36.6211	64.6291	36.6211	65.9498	36.6211	64.5978	36.6211	65.8304	36.6211	64.5809	36.6211	65.6921	36.6211	64.5795	36.6211	65.5417	36.6211	64.5946	36.6211	65.3866	36.6211	64.6278	36.6211	65.2337	36.6211	64.6803	36.6211	65.0895	36.6211	64.753	36.6211	64.9592	36.6211	64.8463
38.0859	66.9663	38.0859	66.84	38.0859	67.0874	38.0859	66.7129	38.0859	67.1983	38.0859	66.5888	38.0859	67.2942	38.0859	66.4708	38.0859	67.37	38.0859	66.361	38.0859	67.4214	38.0859	66.2613	38.0859	67.4449	38.0859	66.1728	38.0859	67.4383	38.0859	66.0962	38.0859	67.4007	38.0859	66.0321	38.0859	67.3331	38.0859	65.9812	38.0859	67.2381	38.0859	65.9443	38.0859	67.1201	38.0859	65.9222	38.0859	66.9847	38.0859	65.9161	38.0859	66.8384	38.0859	65.9273	38.0859	66.6879	38.0859	65.9569	38.0859	66.54	38.0859	66.0061	38.0859	66.4006	38.0859	66.0757	38.0859	66.2745	38.0859	66.1655
39.5508	68.2716	39.5508	68.1626	39.5508	68.3759	39.5508	68.0527	39.5508	68.4711	39.5508	67.9453	39.5508	68.5529	39.5508	67.843	39.5508	68.6167	39.5508	67.7479	39.5508	68.6589	39.5508	67.6615	39.5508	68.6764	39.5508	67.5848	39.5508	68.6671	39.5508	67.5184	39.5508	68.6308	39.5508	67.463	39.5508	68.5683	39.5508	67.4189	39.5508	68.4825	39.5508	67.3868	39.5508	68.3773	39.5508	67.3671	39.5508	68.258	39.5508	67.3608	39.5508	68.1304	39.5508	67.3687	39.5508	68.0006	39.5508	67.3918	39.5508	67.8744	39.5508	67.4312	39.5508	67.7566	39.5508	67.4875	39.5508	67.6513	39.5508	67.561
41.0156	69.326	41.0156	69.2234	41.0156	69.4236	41.0156	69.1196	41.0156	69.5121	41.0156	69.018	41.0156	69.5874	41.0156	68.9213	41.0156	69.6457	41.0156	68.832	41.0156	69.6837	41.0156	68.7516	41.0156	69.6987	41.0156	68.6815	41.0156	69.6894	41.0156	68.6224	41.0156	69.6556	41.0156	68.575	41.0156	69.5988	41.0156	68.5395	41.0156	69.5216	41.0156	68.5162	41.0156	69.4279	41.0156	68.5053	41.0156	69.3225	41.0156	68.5069	41.0156	69.2108	41.0156	68.5214	41.0156	69.0977	41.0156	68.5489	41.0156	68.9879	41.0156	68.5897	41.0156	68.8852	41.0156	68.6441	41.0156	68.7926	41.0156	68.7118
42.4805	70.4345	42.4805	70.3388	42.4805	70.5226	42.4805	70.2388	42.4805	70.5998	42.4805	70.1376	42.4805	70.6623	42.4805	70.0375	42.4805	70.7068	42.4805	69.9407	42.4805	70.7303	42.4805	69.8491	42.4805	70.7305	42.4805	69.7642	42.4805	70.7062	42.4805	69.6872	42.4805	70.6576	42.4805	69.6195	42.4805	70.5859	42.4805	69.5621	42.4805	70.494	42.4805	69.5161	42.4805	70.3859	42.4805	69.4827	42.4805	70.2666	42.4805	69.4631	42.4805	70.1416	42.4805	69.4583	42.4805	70.0164	42.4805	69.4695	42.4805	69.8964	42.4805	69.4978	42.4805	69.7861	42.4805	69.5438	42.4805	69.689	42.4805	69.6078
43.9453	71.3114	43.9453	71.2209	43.9453	71.3946	43.9453	71.1261	43.9453	71.4669	43.9453	71.0299	43.9453	71.525	43.9453	70.9348	43.9453	71.5658	43.9453	70.8431	43.9453	71.5864	43.9453	70.7564	43.9453	71.5849	43.9453	70.6763	43.9453	71.5603	43.9453	70.604	43.9453	71.5128	43.9453	70.5408	43.9453	71.4439	43.9453	70.4876	43.9453	71.3565	43.9453	70.4453	43.9453	71.2544	43.9453	70.4148	43.9453	71.1423	43.9453	70.3971	43.9453	71.0253	43.9453	70.3931	43.9453	70.9088	43.9453	70.4038	43.9453	70.7975	43.9453	70.43	43.9453	70.6955	43.9453	70.4724	43.9453	70.606	43.9453	70.5312
45.4102	72.2173	45.4102	72.1346	45.4102	72.2926	45.4102	72.0472	45.4102	72.3572	45.4102	71.958	45.4102	72.4082	45.4102	71.8693	45.4102	72.4427	45.4102	71.7833	45.4102	72.4585	45.4102	71.7016	45.4102	72.4538	45.4102	71.626	45.4102	72.4279	45.4102	71.5575	45.4102	72.3813	45.4102	71.4975	45.4102	72.3156	45.4102	71.4469	45.4102	72.2334	45.4102	71.4066	45.4102	72.1385	45.4102	71.3774	45.4102	72.0352	45.4102	71.3603	45.4102	71.9281	45.4102	71.3559	45.4102	71.8219	45.4102	71.3652	45.4102	71.7209	45.4102	71.3887	45.4102	71.6285	45.4102	71.427	45.4102	71.5476	45.4102	71.4801
46.875	73.0442	46.875	72.9688	46.875	73.1115	46.875	72.8882	46.875	73.168	46.875	72.8048	46.875	73.2109	46.875	72.7213	46.875	73.2379	46.875	72.6396	46.875	73.2468	46.875	72.5619	46.875	73.2367	46.875	72.4896	46.875	73.207	46.875	72.4243	46.875	73.1587	46.875	72.3672	46.875	73.0934	46.875	72.3193	46.875	73.0143	46.875	72.2814	46.875	72.9248	46.875	72.2543	46.875	72.8293	46.875	72.2384	46.875	72.732	46.875	72.2341	46.875	72.6371	46.875	72.2418	46.875	72.5481	46.875	72.2619	46.875	72.4677	46.875	72.2946	46.875	72.3979	46.875	72.34
48.3398	73.7523	48.3398	73.6786	48.3398	73.817	48.3398	73.5985	48.3398	73.8701	48.3398	73.5145	48.3398	73.909	48.3398	73.4291	48.3398	73.9315	48.3398	73.3442	48.3398	73.9358	48.3398	73.262	48.3398	73.9208	48.3398	73.1842	48.3398	73.8863	48.3398	73.1124	48.3398	73.8332	48.3398	73.0481	48.3398	73.7631	48.3398	72.9925	48.3398	73.6791	48.3398	72.9467	48.3398	73.5847	48.3398	72.9118	48.3398	73.4841	48.3398	72.8885	48.3398	73.3818	48.3398	72.8778	48.3398	73.2819	48.3398	72.8802	48.3398	73.1883	48.3398	72.8965	48.3398	73.104	48.3398	72.9271	48.3398	73.0314	48.3398	72.9721
51.2695	75.1977	51.2695	75.1305	51.2695	75.2551	51.2695	75.0557	51.2695	75.3001	51.2695	74.9758	51.2695	75.3308	51.2695	74.8933	51.2695	75.3452	51.2695	74.8104	51.2695	75.3421	51.2695	74.7292	51.2695	75.321	51.2695	74.6517	51.2695	75.2819	51.2695	74.5796	51.2695	75.226	51.2695	74.5146	51.2695	75.1553	51.2695	74.4579	51.2695	75.0726	51.2695	74.4107	51.2695	74.9814	51.2695	74.374	51.2695	74.8855	51.2695	74.3486	51.2695	74.789	51.2695	74.3352	51.2695	74.6957	51.2695	74.3344	51.2695	74.609	51.2695	74.3468	51.2695	74.5316	51.2695	74.3728	51.2695	74.4657	51.2695	74.4125
52.7344	75.9264	52.7344	75.8625	52.7344	75.9805	52.7344	75.7911	52.7344	76.0224	52.7344	75.7147	52.7344	76.0504	52.7344	75.6356	52.7344	76.0627	52.7344	75.5563	52.7344	76.0584	52.7344	75.479	52.7344	76.037	52.7344	75.4057	52.7344	75.999	52.7344	75.3381	52.7344	75.9457	52.7344	75.278	52.7344	75.879	52.7344	75.2265	52.7344	75.8019	52.7344	75.1846	52.7344	75.7176	52.7344	75.153	52.7344	75.6297	52.7344	75.1323	52.7344	75.5418	52.7344	75.1228	52.7344	75.4573	52.7344	75.1247	52.7344	75.3789	52.7344	75.1382	52.7344	75.3091	52.7344	75.1635	52.7344	75.2493	52.7344	75.2006
54.1992	76.6341	54.1992	76.575	54.1992	76.6831	54.1992	76.508	54.1992	76.72	54.1992	76.4356	54.1992	76.7428	54.1992	76.3601	54.1992	76.7504	54.1992	76.2839	54.1992	76.7419	54.1992	76.2092	54.1992	76.7171	54.1992	76.1381	54.1992	76.6768	54.1992	76.0723	54.1992	76.6223	54.1992	76.0135	54.1992	76.556	54.1992	75.963	54.1992	76.4806	54.1992	75.9218	54.1992	76.3996	54.1992	75.8905	54.1992	76.3163	54.1992	75.8695	54.1992	76.2342	54.1992	75.8591	54.1992	76.1561	54.1992	75.8594	54.1992	76.0846	54.1992	75.8704	54.1992	76.0215	54.1992	75.8922	54.1992	75.9679	54.1992	75.9247
55.6641	77.4658	55.6641	77.4111	55.6641	77.5095	55.6641	77.3475	55.6641	77.5402	55.6641	77.2773	55.6641	77.5566	55.6641	77.2026	55.6641	77.5575	55.6641	77.1257	55.6641	77.5422	55.6641	77.0491	55.6641	77.5109	55.6641	76.9748	55.6641	77.4644	55.6641	76.9049	55.6641	77.4044	55.6641	76.8411	55.6641	77.3332	55.6641	76.785	55.6641	77.2539	55.6641	76.7377	55.6641	77.1699	55.6641	76.7003	55.6641	77.0847	55.6641	76.6733	55.6641	77.0018	55.6641	76.6571	55.6641	76.9242	55.6641	76.6519	55.6641	76.8541	55.6641	76.6579	55.6641	76.7933	55.6641	76.675	55.6641	76.7429	55.6641	76.7034
58.5938	78.9475	58.5938	78.8949	58.5938	78.988	58.5938	78.8322	58.5938	79.0148	58.5938	78.7618	58.5938	79.0264	58.5938	78.686	58.5938	79.022	58.5938	78.6075	58.5938	79.0015	58.5938	78.5287	58.5938	78.9653	58.5938	78.4522	58.5938	78.9144	58.5938	78.3801	58.5938	78.851	58.5938	78.3144	58.5938	78.7775	58.5938	78.2569	58.5938	78.6972	58.5938	78.2086	58.5938	78.6134	58.5938	78.1704	58.5938	78.5296	58.5938	78.1429	58.5938	78.449	58.5938	78.1261	58.5938	78.3743	58.5938	78.12	58.5938	78.3075	58.5938	78.1247	58.5938	78.25	58.5938	78.14	58.5938	78.2027	58.5938	78.166
60.0586	79.6208	60.0586	79.5678	60.0586	79.66	60.0586	79.5031	60.0586	79.684	60.0586	79.4291	60.0586	79.6913	60.0586	79.3484	60.0586	79.6815	60.0586	79.2635	60.0586	79.6546	60.0586	79.1774	60.0586	79.6111	60.0586	79.0927	60.0586	79.5525	60.0586	79.0121	60.0586	79.4811	60.0586	78.9378	60.0586	79.3997	60.0586	78.8716	60.0586	79.3116	60.0586	78.8153	60.0586	79.2204	60.0586	78.7697	60.0586	79.1298	60.0586	78.7356	60.0586	79.043	60.0586	78.7133	60.0586	78.9629	60.0586	78.703	60.0586	78.8917	60.0586	78.7046	60.0586	78.831	60.0586	78.7183	60.0586	78.7815	60.0586	78.7439
62.9883	80.819	62.9883	80.7704	62.9883	80.8559	62.9883	80.7118	62.9883	80.8795	62.9883	80.6456	62.9883	80.8886	62.9883	80.5743	62.9883	80.8828	62.9883	80.5004	62.9883	80.8623	62.9883	80.4264	62.9883	80.8277	62.9883	80.355	62.9883	80.7803	62.9883	80.2883	62.9883	80.7223	62.9883	80.2281	62.9883	80.6559	62.9883	80.176	62.9883	80.584	62.9883	80.1329	62.9883	80.5094	62.9883	80.0996	62.9883	80.435	62.9883	80.0761	62.9883	80.3633	62.9883	80.0626	62.9883	80.2965	62.9883	80.059	62.9883	80.2363	62.9883	80.065	62.9883	80.184	62.9883	80.0807	62.9883	80.1403	62.9883	80.1058
64.4531	81.4529	64.4531	81.4064	64.4531	81.4873	64.4531	81.3495	64.4531	81.5079	64.4531	81.2846	64.4531	81.5139	64.4531	81.2141	64.4531	81.505	64.4531	81.1409	64.4531	81.4814	64.4531	81.0676	64.4531	81.4442	64.4531	80.997	64.4531	81.3949	64.4531	80.9313	64.4531	81.336	64.4531	80.8725	64.4531	81.2701	64.4531	80.8223	64.4531	81.2001	64.4531	80.7817	64.4531	81.1291	64.4531	80.7511	64.4531	81.0596	64.4531	80.7306	64.4531	80.994	64.4531	80.7198	64.4531	80.9339	64.4531	80.7183	64.4531	80.8804	64.4531	80.7255	64.4531	80.8342	64.4531	80.741	64.4531	80.7954	64.4531	80.7643
67.3828	82.2485	67.3828	82.2051	67.3828	82.2776	67.3828	82.149	67.3828	82.2911	67.3828	82.0828	67.3828	82.2884	67.3828	82.0089	67.3828	82.2694	67.3828	81.9304	67.3828	82.2351	67.3828	81.8503	67.3828	82.1869	67.3828	81.7717	67.3828	82.127	67.3828	81.6974	67.3828	82.0582	67.3828	81.63	67.3828	81.9837	67.3828	81.5713	67.3828	81.9068	67.3828	81.5228	67.3828	81.8307	67.3828	81.4852	67.3828	81.7581	67.3828	81.4587	67.3828	81.6913	67.3828	81.4428	67.3828	81.6316	67.3828	81.4369	67.3828	81.5797	67.3828	81.4403	67.3828	81.536	67.3828	81.4523	67.3828	81.5002	67.3828	81.4723
68.8477	82.4855	68.8477	82.4442	68.8477	82.5117	68.8477	82.3895	68.8477	82.5217	68.8477	82.3238	68.8477	82.515	68.8477	82.2497	68.8477	82.4917	68.8477	82.1702	68.8477	82.453	68.8477	82.0885	68.8477	82.4004	68.8477	82.0078	68.8477	82.3364	68.8477	81.931	68.8477	82.2641	68.8477	81.8608	68.8477	82.1866	68.8477	81.7994	68.8477	82.1076	68.8477	81.7481	68.8477	82.0303	68.8477	81.7079	68.8477	81.9573	68.8477	81.6789	68.8477	81.891	68.8477	81.6608	68.8477	81.8324	68.8477	81.6528	68.8477	81.7823	68.8477	81.6541	68.8477	81.7406	68.8477	81.6639	68.8477	81.7072	68.8477	81.6816
71.7773	82.7703	71.7773	82.732	71.7773	82.7928	71.7773	82.6796	71.7773	82.7984	71.7773	82.6152	71.7773	82.7868	71.7773	82.5417	71.7773	82.7585	71.7773	82.462	71.7773	82.7146	71.7773	82.3793	71.7773	82.6572	71.7773	82.2971	71.7773	82.589	71.7773	82.2184	71.7773	82.513	71.7773	82.146	71.7773	82.4329	71.7773	82.0821	71.7773	82.3523	71.7773	82.0283	71.7773	82.2744	71.7773	81.9855	71.7773	82.2019	71.7773	81.9538	71.7773	82.1369	71.7773	81.9328	71.7773	82.0804	71.7773	81.9219	71.7773	82.0328	71.7773	81.9202	71.7773	81.9941	71.7773	81.9268	71.7773	81.9638	71.7773	81.9414
74.707	82.9592	74.707	82.9232	74.707	82.9788	74.707	82.8724	74.707	82.9809	74.707	82.8088	74.707	82.9655	74.707	82.7354	74.707	82.9331	74.707	82.6553	74.707	82.8852	74.707	82.5717	74.707	82.8241	74.707	82.4882	74.707	82.7526	74.707	82.408	74.707	82.6741	74.707	82.334	74.707	82.5924	74.707	82.2687	74.707	82.5111	74.707	82.2137	74.707	82.4335	74.707	82.1699	74.707	82.3624	74.707	82.1374	74.707	82.2996	74.707	82.1158	74.707	82.246	74.707	82.1042	74.707	82.2017	74.707	82.1015	74.707	82.1663	74.707	82.1068	74.707	82.1391	74.707	82.1193
77.6367	83.1397	77.6367	83.1073	77.6367	83.1556	77.6367	83.0598	77.6367	83.154	77.6367	82.9995	77.6367	83.1352	77.6367	82.9292	77.6367	83.0999	77.6367	82.852	77.6367	83.0498	77.6367	82.7714	77.6367	82.9874	77.6367	82.691	77.6367	82.9159	77.6367	82.6139	77.6367	82.8388	77.6367	82.5431	77.6367	82.7599	77.6367	82.4809	77.6367	82.6827	77.6367	82.4287	77.6367	82.6103	77.6367	82.3873	77.6367	82.5452	77.6367	82.3567	77.6367	82.4887	77.6367	82.3362	77.6367	82.4414	77.6367	82.3247	77.6367	82.4031	77.6367	82.3212	77.6367	82.3731	77.6367	82.3247	77.6367	82.3505	77.6367	82.3345
79.1016	83.2571	79.1016	83.2252	79.1016	83.272	79.1016	83.1778	79.1016	83.2691	79.1016	83.1172	79.1016	83.2486	79.1016	83.0461	79.1016	83.2113	79.1016	82.9681	79.1016	83.1592	79.1016	82.8865	79.1016	83.0948	79.1016	82.805	79.1016	83.0215	79.1016	82.7271	79.1016	82.943	79.1016	82.6556	79.1016	82.863	79.1016	82.5928	79.1016	82.7852	79.1016	82.5403	79.1016	82.7127	79.1016	82.4987	79.1016	82.6479	79.1016	82.4679	79.1016	82.5921	79.1016	82.4471	79.1016	82.5457	79.1016	82.4354	79.1016	82.5086	79.1016	82.4314	79.1016	82.4797	79.1016	82.4342	79.1016	82.4582	79.1016	82.4432
82.0312	83.43	82.0312	83.3975	82.0312	83.4455	82.0312	83.3497	82.0312	83.4433	82.0312	83.289	82.0312	83.4236	82.0312	83.2184	82.0312	83.3875	82.0312	83.1414	82.0312	83.3371	82.0312	83.0619	82.0312	83.2753	82.0312	82.9837	82.0312	83.2055	82.0312	82.9102	82.0312	83.1316	82.0312	82.8447	82.0312	83.0575	82.0312	82.7892	82.0312	82.9867	82.0312	82.745	82.0312	82.9222	82.0312	82.7123	82.0312	82.8658	82.0312	82.6906	82.0312	82.8185	82.0312	82.6785	82.0312	82.78	82.0312	82.6743	82.0312	82.7496	82.0312	82.6762	82.0312	82.7259	82.0312	82.6828	82.0312	82.7075	82.0312	82.6933
84.9609	83.6478	84.9609	83.6177	84.9609	83.6625	84.9609	83.5737	84.9609	83.6612	84.9609	83.5181	84.9609	83.644	84.9609	83.4538	84.9609	83.6123	84.9609	83.3845	84.9609	83.568	84.9609	83.3135	84.9609	83.514	84.9609	83.2447	84.9609	83.4536	84.9609	83.1811	84.9609	83.3902	84.9609	83.1254	84.9609	83.3273	84.9609	83.0794	84.9609	83.2678	84.9609	83.044	84.9609	83.2139	84.9609	83.019	84.9609	83.167	84.9609	83.0036	84.9609	83.1275	84.9609	82.9963	84.9609	83.0953	84.9609	82.9955	84.9609	83.0693	84.9609	82.9997	84.9609	83.0485	84.9609	83.0075	84.9609	83.0318	84.9609	83.0182
87.8906	84.0181	87.8906	83.9866	87.8906	84.0279	87.8906	83.9348	87.8906	84.0157	87.8906	83.8655	87.8906	83.9826	87.8906	83.7825	87.8906	83.9308	87.8906	83.6906	87.8906	83.864	87.8906	83.5953	87.8906	83.7867	87.8906	83.5028	87.8906	83.7046	87.8906	83.4189	87.8906	83.6235	87.8906	83.3489	87.8906	83.5493	87.8906	83.297	87.8906	83.4868	87.8906	83.265	87.8906	83.439	87.8906	83.2529	87.8906	83.407	87.8906	83.258	87.8906	83.3894	87.8906	83.2762	87.8906	83.3827	87.8906	83.3017	87.8906	83.3823	87.8906	83.3289	87.8906	83.3828	87.8906	83.3528	87.8906	83.3799	87.8906	83.3702
90.8203	84.5236	90.8203	84.4948	90.8203	84.5292	90.8203	84.4438	90.8203	84.5112	90.8203	84.3725	90.8203	84.4705	90.8203	84.2836	90.8203	84.4088	90.8203	84.1806	90.8203	84.3286	90.8203	84.0672	90.8203	84.2331	90.8203	83.9478	90.8203	84.1264	90.8203	83.8266	90.8203	84.0128	90.8203	83.708	90.8203	83.8967	90.8203	83.5962	90.8203	83.7825	90.8203	83.4949	90.8203	83.6737	90.8203	83.4071	90.8203	83.5737	90.8203	83.3351	90.8203	83.4844	90.8203	83.2801	90.8203	83.4073	90.8203	83.2427	90.8203	83.343	90.8203	83.2224	90.8203	83.2918	90.8203	83.2181	90.8203	83.2536	90.8203	83.2289
95.2148	84.6305	95.2148	84.5997	95.2148	84.6412	95.2148	84.5505	95.2148	84.6314	95.2148	84.4855	95.2148	84.6016	95.2148	84.4083	95.2148	84.5538	95.2148	84.3228	95.2148	84.4909	95.2148	84.2336	95.2148	84.4169	95.2148	84.1453	95.2148	84.3362	95.2148	84.062	95.2148	84.2537	95.2148	83.9873	95.2148	84.1738	95.2148	83.9239	95.2148	84.1004	95.2148	83.8734	95.2148	84.036	95.2148	83.836	95.2148	83.9819	95.2148	83.8113	95.2148	83.9379	95.2148	83.7978	95.2148	83.9028	95.2148	83.7937	95.2148	83.8749	95.2148	83.7968	95.2148	83.8523	95.2148	83.8054	95.2148	83.8336	95.2148	83.818
98.1445	84.7935	98.1445	84.7641	98.1445	84.8027	98.1445	84.7161	98.1445	84.7913	98.1445	84.6522	98.1445	84.7601	98.1445	84.5758	98.1445	84.7111	98.1445	84.4913	98.1445	84.6474	98.1445	84.4033	98.1445	84.573	98.1445	84.3165	98.1445	84.4925	98.1445	84.2354	98.1445	84.4109	98.1445	84.1638	98.1445	84.3327	98.1445	84.1042	98.1445	84.2617	98.1445	84.0583	98.1445	84.2008	98.1445	84.026	98.1445	84.151	98.1445	84.0064	98.1445	84.1122	98.1445	83.9974	98.1445	84.0831	98.1445	83.9967	98.1445	84.0615	98.1445	84.0016	98.1445	84.0451	98.1445	84.0099	98.1445	84.0318	98.1445	84.0202
101.074	84.8566	101.074	84.8275	101.074	84.8646	101.074	84.779	101.074	84.8515	101.074	84.7138	101.074	84.8183	101.074	84.6358	101.074	84.7679	101.074	84.5499	101.074	84.7039	101.074	84.4611	101.074	84.6311	101.074	84.3751	101.074	84.5547	101.074	84.2967	101.074	84.4801	101.074	84.2301	101.074	84.412	101.074	84.1784	101.074	84.3537	101.074	84.1429	101.074	84.3074	101.074	84.1232	101.074	84.273	101.074	84.1176	101.074	84.2492	101.074	84.1232	101.074	84.2333	101.074	84.1364	101.074	84.222	101.074	84.1536	101.074	84.2122	101.074	84.1715	101.074	84.2013	101.074	84.1878
105.469	85.0175	105.469	84.9865	105.469	85.0248	105.469	84.9333	105.469	85.0081	105.469	84.8611	105.469	84.9689	105.469	84.7741	105.469	84.91	105.469	84.6776	105.469	84.8358	105.469	84.5773	105.469	84.7517	105.469	84.4794	105.469	84.6638	105.469	84.3897	105.469	84.5783	105.469	84.313	105.469	84.5009	105.469	84.253	105.469	84.4358	105.469	84.2117	105.469	84.3854	105.469	84.1889	105.469	84.3498	105.469	84.183	105.469	84.3271	105.469	84.1906	105.469	84.3136	105.469	84.2076	105.469	84.305	105.469	84.2293	105.469	84.297	105.469	84.2516	105.469	84.2863	105.469	84.2712
108.398	85.0694	108.398	85.0395	108.398	85.0741	108.398	84.9861	108.398	85.0534	108.398	84.9123	108.398	85.009	108.398	84.8228	108.398	84.9439	108.398	84.723	108.398	84.8627	108.398	84.6191	108.398	84.7712	108.398	84.5176	108.398	84.6757	108.398	84.4246	108.398	84.5831	108.398	84.3452	108.398	84.4993	108.398	84.2832	108.398	84.4292	108.398	84.2404	108.398	84.3753	108.398	84.2166	108.398	84.3382	108.398	84.2097	108.398	84.3159	108.398	84.2159	108.398	84.3048	108.398	84.2308	108.398	84.3001	108.398	84.2495	108.398	84.2971	108.398	84.2677	108.398	84.292	108.398	84.2823
112.793	85.1414	112.793	85.1126	112.793	85.1439	112.793	85.059	112.793	85.1202	112.793	84.9837	112.793	85.072	112.793	84.8913	112.793	85.0028	112.793	84.7874	112.793	84.9174	112.793	84.6786	112.793	84.8218	112.793	84.5716	112.793	84.7228	112.793	84.4732	112.793	84.6272	112.793	84.3889	112.793	84.5413	112.793	84.3228	112.793	84.4699	112.793	84.2771	112.793	84.4155	112.793	84.2515	112.793	84.3783	112.793	84.2439	112.793	84.3564	112.793	84.2504	112.793	84.3456	112.793	84.2662	112.793	84.3411	112.793	84.2861	112.793	84.3379	112.793	84.3057	112.793	84.3322	112.793	84.3216
117.188	85.1923	117.188	85.1607	117.188	85.1948	117.188	85.1019	117.188	85.1683	117.188	85.0196	117.188	85.1144	117.188	84.9189	117.188	85.0369	117.188	84.8065	117.188	84.9412	117.188	84.6895	117.188	84.834	117.188	84.5757	117.188	84.7229	117.188	84.4722	117.188	84.6158	117.188	84.385	117.188	84.5199	117.188	84.3183	117.188	84.4408	117.188	84.2737	117.188	84.3818	117.188	84.2506	117.188	84.3434	117.188	84.246	117.188	84.3233	117.188	84.255	117.188	84.3171	117.188	84.2721	117.188	84.3191	117.188	84.2916	117.188	84.3232	117.188	84.3088	117.188	84.3247	117.188	84.3202
120.117	85.3103	120.117	85.2822	120.117	85.3073	120.117	85.2248	120.117	85.2736	120.117	85.1415	120.117	85.2113	120.117	85.0374	120.117	85.1244	120.117	84.9191	120.117	85.0184	120.117	84.7943	120.117	84.9006	120.117	84.6712	120.117	84.7787	120.117	84.5579	120.117	84.6613	120.117	84.4613	120.117	84.556	120.117	84.3865	120.117	84.4692	120.117	84.3356	120.117	84.4047	120.117	84.3082	120.117	84.3635	120.117	84.3008	120.117	84.3432	120.117	84.3081	120.117	84.3392	120.117	84.3236	120.117	84.3452	120.117	84.341	120.117	84.3545	120.117	84.3549	120.117	84.3615	120.117	84.3621
124.512	85.5394	124.512	85.512	124.512	85.5352	124.512	85.454	124.512	85.4998	124.512	85.368	124.512	85.4353	124.512	85.2586	124.512	85.3455	124.512	85.1312	124.512	85.2354	124.512	84.9928	124.512	85.1112	124.512	84.8509	124.512	84.9799	124.512	84.7135	124.512	84.8487	124.512	84.588	124.512	84.7245	124.512	84.4805	124.512	84.6134	124.512	84.3954	124.512	84.5198	124.512	84.3344	124.512	84.446	124.512	84.2965	124.512	84.392	124.512	84.2784	124.512	84.3556	124.512	84.2749	124.512	84.3327	124.512	84.2803	124.512	84.3186	124.512	84.2895	124.512	84.3086	124.512	84.2993
128.906	85.4657	128.906	85.4394	128.906	85.4629	128.906	85.3853	128.906	85.4317	128.906	85.3066	128.906	85.3743	128.906	85.2079	128.906	85.2949	128.906	85.0954	128.906	85.1992	128.906	84.9763	128.906	85.0938	128.906	84.8583	128.906	84.986	128.906	84.7485	128.906	84.8831	128.906	84.6537	128.906	84.7911	128.906	84.5783	128.906	84.7148	128.906	84.525	128.906	84.6564	128.906	84.4936	128.906	84.6161	128.906	84.4819	128.906	84.5914	128.906	84.4856	128.906	84.5784	128.906	84.4994	128.906	84.5723	128.906	84.5179	128.906	84.5682	128.906	84.5365	128.906	84.5621	128.906	84.5518
133.301	85.512	133.301	85.4852	133.301	85.5081	133.301	85.429	133.301	85.4742	133.301	85.3466	133.301	85.4127	133.301	85.2427	133.301	85.328	133.301	85.1235	133.301	85.226	133.301	84.9965	133.301	85.1138	133.301	84.8697	133.301	84.9994	133.301	84.7512	133.301	84.8905	133.301	84.6483	133.301	84.794	133.301	84.5669	133.301	84.7149	133.301	84.5102	133.301	84.6561	133.301	84.4789	133.301	84.6173	133.301	84.4705	133.301	84.596	133.301	84.48	133.301	84.5875	133.301	84.5011	133.301	84.5859	133.301	84.5268	133.301	84.5855	133.301	84.5512	133.301	84.5812	133.301	84.57
139.16	85.497	139.16	85.4714	139.16	85.4889	139.16	85.4134	139.16	85.4481	139.16	85.3267	139.16	85.3775	139.16	85.2166	139.16	85.2824	139.16	85.0902	139.16	85.1698	139.16	84.9561	139.16	85.0479	139.16	84.8231	139.16	84.9257	139.16	84.7002	139.16	84.812	139.16	84.5954	139.16	84.7143	139.16	84.5145	139.16	84.6379	139.16	84.4608	139.16	84.585	139.16	84.4341	139.16	84.5549	139.16	84.4316	139.16	84.5436	139.16	84.4474	139.16	84.5454	139.16	84.4743	139.16	84.5531	139.16	84.5048	139.16	84.56	139.16	84.5321	139.16	84.5606	139.16	84.5515
143.555	85.4838	143.555	85.4593	143.555	85.4731	143.555	85.4007	143.555	85.4284	143.555	85.3115	143.555	85.3531	143.555	85.197	143.555	85.2526	143.555	85.0644	143.555	85.1342	143.555	84.9223	143.555	85.0063	143.555	84.7803	143.555	84.8783	143.555	84.6477	143.555	84.7589	143.555	84.5329	143.555	84.6558	143.555	84.4426	143.555	84.5741	143.555	84.3804	143.555	84.5164	143.555	84.3468	143.555	84.4816	143.555	84.339	143.555	84.4661	143.555	84.3513	143.555	84.4637	143.555	84.3764	143.555	84.4676	143.555	84.4066	143.555	84.4709	143.555	84.435	143.555	84.4681	143.555	84.4563
147.949	85.3734	147.949	85.3511	147.949	85.3595	147.949	85.2935	147.949	85.311	147.949	85.2039	147.949	85.2316	147.949	85.0876	147.949	85.1274	147.949	84.9521	147.949	85.0061	147.949	84.8063	147.949	84.8769	147.949	84.6599	147.949	84.7494	147.949	84.5229	147.949	84.6327	147.949	84.4042	147.949	84.5344	147.949	84.311	147.949	84.4593	147.949	84.2476	147.949	84.409	147.949	84.2147	147.949	84.3818	147.949	84.2096	147.949	84.3727	147.949	84.2268	147.949	84.375	147.949	84.2584	147.949	84.381	147.949	84.2961	147.949	84.3836	147.949	84.332	147.949	84.3776	147.949	84.3603
153.809	85.1667	153.809	85.1465	153.809	85.1495	153.809	85.0899	153.809	85.0964	153.809	85.0008	153.809	85.0113	153.809	84.8849	153.809	84.9006	153.809	84.7504	153.809	84.7726	153.809	84.6065	153.809	84.6374	153.809	84.4637	153.809	84.5054	153.809	84.3323	153.809	84.3867	153.809	84.2213	153.809	84.2896	153.809	84.1376	153.809	84.2195	153.809	84.0848	153.809	84.1782	153.809	84.0629	153.809	84.1634	153.809	84.0681	153.809	84.1696	153.809	84.0937	153.809	84.1885	153.809	84.131	153.809	84.2113	153.809	84.1711	153.809	84.2293	153.809	84.2056	153.809	84.2362	153.809	84.2284
159.668	85.1184	159.668	85.0997	159.668	85.0972	159.668	85.0422	159.668	85.0379	159.668	84.9494	159.668	84.9447	159.668	84.8272	159.668	84.8244	159.668	84.6838	159.668	84.6862	159.668	84.5292	159.668	84.5414	159.668	84.3745	159.668	84.4021	159.668	84.2314	159.668	84.2799	159.668	84.1109	159.668	84.1848	159.668	84.0215	159.668	84.1228	159.668	83.9686	159.668	84.0952	159.668	83.9529	159.668	84.098	159.668	83.9702	159.668	84.123	159.668	84.0123	159.668	84.1591	159.668	84.0686	159.668	84.1948	159.668	84.1274	159.668	84.2198	159.668	84.1782	159.668	84.2271	159.668	84.213
165.527	85.0542	165.527	85.0347	165.527	85.0328	165.527	84.9758	165.527	84.9717	165.527	84.8816	165.527	84.8752	165.527	84.7585	165.527	84.7501	165.527	84.6152	165.527	84.6056	165.527	84.4617	165.527	84.453	165.527	84.3089	165.527	84.3043	165.527	84.1676	165.527	84.1714	165.527	84.0478	165.527	84.0643	165.527	83.9571	165.527	83.9898	165.527	83.9002	165.527	83.9502	165.527	83.8777	165.527	83.9431	165.527	83.8859	165.527	83.9614	165.527	83.9173	165.527	83.9949	165.527	83.9621	165.527	84.0321	165.527	84.0092	165.527	84.0622	165.527	84.0487	165.527	84.0772	165.527	84.0727
171.387	84.9411	171.387	84.9198	171.387	84.9171	171.387	84.8547	171.387	84.8491	171.387	84.7505	171.387	84.7419	171.387	84.6149	171.387	84.603	171.387	84.4579	171.387	84.443	171.387	84.2914	171.387	84.2741	171.387	84.128	171.387	84.1099	171.387	83.9804	171.387	83.9637	171.387	83.8596	171.387	83.847	171.387	83.7736	171.387	83.7676	171.387	83.7262	171.387	83.7287	171.387	83.7164	171.387	83.7277	171.387	83.7383	171.387	83.757	171.387	83.7822	171.387	83.8053	171.387	83.8361	171.387	83.8593	171.387	83.8876	171.387	83.9063	171.387	83.9258	171.387	83.9363	171.387	83.9432
177.246	84.7674	177.246	84.7531	177.246	84.7357	177.246	84.6937	177.246	84.6603	177.246	84.5932	177.246	84.5466	177.246	84.4583	177.246	84.4027	177.246	84.2985	177.246	84.2393	177.246	84.1256	177.246	84.0688	177.246	83.9525	177.246	83.9046	177.246	83.7923	177.246	83.7592	177.246	83.657	177.246	83.6432	177.246	83.5556	177.246	83.5633	177.246	83.4934	177.246	83.5216	177.246	83.4702	177.246	83.5151	177.246	83.4812	177.246	83.5362	177.246	83.517	177.246	83.5743	177.246	83.5658	177.246	83.6173	177.246	83.6151	177.246	83.6539	177.246	83.6543	177.246	83.6751	177.246	83.6755
183.105	84.5722	183.105	84.5593	183.105	84.5371	183.105	84.4991	183.105	84.4569	183.105	84.3958	183.105	84.3377	183.105	84.2569	183.105	84.1893	183.105	84.0931	183.105	84.024	183.105	83.9177	183.105	83.8562	183.105	83.7456	183.105	83.7009	183.105	83.592	183.105	83.5718	183.105	83.4701	183.105	83.4793	183.105	83.3897	183.105	83.4289	183.105	83.3548	183.105	83.4203	183.105	83.363	183.105	83.4473	183.105	83.4064	183.105	83.4997	183.105	83.4728	183.105	83.5642	183.105	83.5481	183.105	83.6273	183.105	83.6186	183.105	83.6768	183.105	83.6727	183.105	83.7036	183.105	83.7024
188.965	84.5463	188.965	84.5394	188.965	84.4991	188.965	84.4791	188.965	84.4009	188.965	84.3693	188.965	84.2585	188.965	84.2176	188.965	84.0823	188.965	84.0345	188.965	83.8862	188.965	83.8337	188.965	83.6865	188.965	83.6311	188.965	83.5013	188.965	83.4438	188.965	83.3474	188.965	83.2884	188.965	83.2384	188.965	83.1786	188.965	83.1816	188.965	83.1224	188.965	83.1771	188.965	83.1203	188.965	83.2168	188.965	83.165	188.965	83.2871	188.965	83.2423	188.965	83.3708	188.965	83.3346	188.965	83.4505	188.965	83.424	188.965	83.511	188.965	83.4949	188.965	83.5414	188.965	83.536
196.289	84.4802	196.289	84.4796	196.289	84.4239	196.289	84.422	196.289	84.3135	196.289	84.3109	196.289	84.1557	196.289	84.1525	196.289	83.9603	196.289	83.9563	196.289	83.7403	196.289	83.7346	196.289	83.5118	196.289	83.5026	196.289	83.2929	196.289	83.2774	196.289	83.1018	196.289	83.077	196.289	82.9545	196.289	82.918	196.289	82.8618	196.289	82.8129	196.289	82.8266	196.289	82.7669	196.289	82.843	196.289	82.7764	196.289	82.8974	196.289	82.8295	196.289	82.971	196.289	82.9084	196.289	83.044	196.289	82.9933	196.289	83.099	196.289	83.0659	196.289	83.1236	196.289	83.1121
203.613	84.2666	203.613	84.2724	203.613	84.2038	203.613	84.222	203.613	84.0869	203.613	84.1194	203.613	83.9223	203.613	83.9718	203.613	83.7199	203.613	83.7889	203.613	83.4935	203.613	83.5834	203.613	83.2598	203.613	83.3697	203.613	83.0375	203.613	83.1633	203.613	82.8454	203.613	82.98	203.613	82.6994	203.613	82.834	203.613	82.6102	203.613	82.7356	203.613	82.5804	203.613	82.6889	203.613	82.6038	203.613	82.6909	203.613	82.6668	203.613	82.7312	203.613	82.7506	203.613	82.794	203.613	82.8353	203.613	82.8615	203.613	82.9034	203.613	82.9168	203.613	82.9424	203.613	82.9464
210.938	84.236	210.938	84.2417	210.938	84.1709	210.938	84.189	210.938	84.0491	210.938	84.0823	210.938	83.8769	210.938	83.929	210.938	83.6644	210.938	83.7394	210.938	83.4258	210.938	83.5267	210.938	83.1784	210.938	83.3059	210.938	82.9422	210.938	83.0933	210.938	82.7373	210.938	82.9057	210.938	82.5814	210.938	82.7576	210.938	82.4866	210.938	82.6598	210.938	82.4561	210.938	82.6163	210.938	82.4838	210.938	82.6231	210.938	82.5549	210.938	82.6686	210.938	82.6493	210.938	82.7356	210.938	82.7455	210.938	82.805	210.938	82.8247	210.938	82.8592	210.938	82.8732	210.938	82.8845
218.262	84.0311	218.262	84.0384	218.262	83.9641	218.262	83.9873	218.262	83.8401	218.262	83.883	218.262	83.6658	218.262	83.7339	218.262	83.4525	218.262	83.5513	218.262	83.2158	218.262	83.349	218.262	82.9748	218.262	83.1426	218.262	82.7507	218.262	82.9491	218.262	82.5648	218.262	82.7847	218.262	82.4345	218.262	82.6639	218.262	82.3707	218.262	82.5961	218.262	82.375	218.262	82.5839	218.262	82.4388	218.262	82.6215	218.262	82.5449	218.262	82.6952	218.262	82.6711	218.262	82.7863	218.262	82.794	218.262	82.8743	218.262	82.8932	218.262	82.9402	218.262	82.9541	218.262	82.9695
225.586	84.0652	225.586	84.0742	225.586	83.9891	225.586	84.0176	225.586	83.8483	225.586	83.9012	225.586	83.65	225.586	83.7339	225.586	83.4064	225.586	83.5284	225.586	83.1346	225.586	83.2999	225.586	82.8566	225.586	83.0664	225.586	82.5977	225.586	82.8477	225.586	82.384	225.586	82.6639	225.586	82.2381	225.586	82.5328	225.586	82.1745	225.586	82.4668	225.586	82.1954	225.586	82.4686	225.586	82.29	225.586	82.5305	225.586	82.4357	225.586	82.6346	225.586	82.6038	225.586	82.7569	225.586	82.7648	225.586	82.8718	225.586	82.8936	225.586	82.9563	225.586	82.9725	225.586	82.9932
232.91	84.1445	232.91	84.1563	232.91	84.0616	232.91	84.0997	232.91	83.9089	232.91	83.9805	232.91	83.6922	232.91	83.808	232.91	83.4216	232.91	83.5938	232.91	83.1129	232.91	83.3522	232.91	82.7869	232.91	83.0994	232.91	82.4694	232.91	82.8535	232.91	82.1891	232.91	82.634	232.91	81.9739	232.91	82.4599	232.91	81.8459	232.91	82.3468	232.91	81.8151	232.91	82.3025	232.91	81.8763	232.91	82.3233	232.91	82.0087	232.91	82.394	232.91	82.1812	232.91	82.4899	232.91	82.3593	232.91	82.5829	232.91	82.512	232.91	82.6469	232.91	82.6168	232.91	82.6618
241.699	83.9833	241.699	83.9776	241.699	83.9228	241.699	83.9095	241.699	83.7963	241.699	83.7866	241.699	83.6083	241.699	83.6191	241.699	83.3675	241.699	83.4197	241.699	83.0875	241.699	83.2018	241.699	82.7864	241.699	82.9797	241.699	82.4862	241.699	82.7673	241.699	82.2115	241.699	82.5784	241.699	81.9866	241.699	82.4262	241.699	81.8323	241.699	82.3218	241.699	81.7614	241.699	82.2714	241.699	81.775	241.699	82.273	241.699	81.8607	241.699	82.3149	241.699	81.9949	241.699	82.3772	241.699	82.148	241.699	82.4362	241.699	82.2904	241.699	82.4692	241.699	82.3988	241.699	82.4594
250.488	84.0994	250.488	84.0596	250.488	84.0588	250.488	83.9435	250.488	83.939	250.488	83.7604	250.488	83.7461	250.488	83.5246	250.488	83.4915	250.488	83.2546	250.488	83.1917	250.488	82.9722	250.488	82.8685	250.488	82.7002	250.488	82.5477	250.488	82.4597	250.488	82.257	250.488	82.2685	250.488	82.0226	250.488	82.1388	250.488	81.8648	250.488	82.076	250.488	81.794	250.488	82.0772	250.488	81.8076	250.488	82.1313	250.488	81.891	250.488	82.2193	250.488	82.0199	250.488	82.3177	250.488	82.1657	250.488	82.4024	250.488	82.3005	250.488	82.4524	250.488	82.4014	250.488	82.4537
259.277	84.5253	259.277	84.5015	259.277	84.4676	259.277	84.3977	259.277	84.3313	259.277	84.2203	259.277	84.1239	259.277	83.9806	259.277	83.8573	259.277	83.6948	259.277	83.548	259.277	83.3833	259.277	83.2168	259.277	83.0698	259.277	82.8885	259.277	82.7789	259.277	82.5895	259.277	82.5334	259.277	82.3459	259.277	82.3517	259.277	82.1784	259.277	82.2446	259.277	82.0982	259.277	82.213	259.277	82.103	259.277	82.2474	259.277	82.1766	259.277	82.329	259.277	82.2929	259.277	82.4329	259.277	82.4215	259.277	82.5327	259.277	82.5339	259.277	82.6051	259.277	82.6086	259.277	82.633
268.066	84.5414	268.066	84.5264	268.066	84.4733	268.066	84.4292	268.066	84.3261	268.066	84.2558	268.066	84.1087	268.066	84.0175	268.066	83.8353	268.066	83.7306	268.066	83.5252	268.066	83.4167	268.066	83.2022	268.066	83.1013	268.066	82.893	268.066	82.8122	268.066	82.6249	268.066	82.576	268.066	82.422	268.066	82.4144	268.066	82.3013	268.066	82.3395	268.066	82.2687	268.066	82.3501	268.066	82.3173	268.066	82.4319	268.066	82.428	268.066	82.5597	268.066	82.5736	268.066	82.7031	268.066	82.7239	268.066	82.8323	268.066	82.8511	268.066	82.923	268.066	82.9339	268.066	82.959
276.855	84.8999	276.855	84.8753	276.855	84.8432	276.855	84.7701	276.855	84.7085	276.855	84.5886	276.855	84.5028	276.855	84.3391	276.855	84.2378	276.855	84.0338	276.855	83.9301	276.855	83.6901	276.855	83.6013	276.855	83.3305	276.855	83.2766	276.855	82.9834	276.855	82.9832	276.855	82.6814	276.855	82.7471	276.855	82.4563	276.855	82.5896	276.855	82.3318	276.855	82.5231	276.855	82.315	276.855	82.5465	276.855	82.3936	276.855	82.6433	276.855	82.5395	276.855	82.7832	276.855	82.7167	276.855	82.9292	276.855	82.8887	276.855	83.0464	276.855	83.0245	276.855	83.1085	276.855	83.1016
287.109	84.8579	287.109	84.8805	287.109	84.7465	287.109	84.8144	287.109	84.5521	287.109	84.665	287.109	84.2872	287.109	84.4431	287.109	83.9708	287.109	84.1642	287.109	83.6291	287.109	83.8477	287.109	83.2941	287.109	83.5163	287.109	83.0006	287.109	83.1954	287.109	82.781	287.109	82.9126	287.109	82.6574	287.109	82.6961	287.109	82.6361	287.109	82.5697	287.109	82.706	287.109	82.5463	287.109	82.8422	287.109	82.621	287.109	83.0128	287.109	82.7706	287.109	83.1853	287.109	82.9598	287.109	83.3309	287.109	83.1513	287.109	83.4269	287.109	83.3122	287.109	83.4584	287.109	83.4191
297.363	84.921	297.363	84.9499	297.363	84.788	297.363	84.8775	297.363	84.5537	297.363	84.712	297.363	84.2277	297.363	84.4664	297.363	83.8274	297.363	84.1575	297.363	83.3795	297.363	83.806	297.363	82.921	297.363	83.4359	297.363	82.4978	297.363	83.075	297.363	82.1609	297.363	82.7554	297.363	81.9556	297.363	82.5118	297.363	81.9088	297.363	82.3752	297.363	82.018	297.363	82.3633	297.363	82.2509	297.363	82.4715	297.363	82.5554	297.363	82.6717	297.363	82.8739	297.363	82.9187	297.363	83.1554	297.363	83.1618	297.363	83.3614	297.363	83.355	297.363	83.4674	297.363	83.4636
307.617	84.5256	307.617	84.5418	307.617	84.4123	307.617	84.4656	307.617	84.2025	307.617	84.3062	307.617	83.9027	307.617	84.0772	307.617	83.5265	307.617	83.7957	307.617	83.095	307.617	83.4813	307.617	82.6378	307.617	83.1544	307.617	82.1915	307.617	82.8354	307.617	81.797	307.617	82.5438	307.617	81.4952	307.617	82.2997	307.617	81.3204	307.617	82.1224	307.617	81.2913	307.617	82.0278	307.617	81.4028	307.617	82.0222	307.617	81.6225	307.617	82.0966	307.617	81.8971	307.617	82.2255	307.617	82.1679	307.617	82.3709	307.617	82.3845	307.617	82.4906	307.617	82.5146	307.617	82.5471
319.336	84.1711	319.336	84.161	319.336	84.0701	319.336	84.0466	319.336	83.8571	319.336	83.8398	319.336	83.5376	319.336	83.5578	319.336	83.1251	319.336	83.2222	319.336	82.6442	319.336	82.8582	319.336	82.1329	319.336	82.4937	319.336	81.6432	319.336	82.1578	319.336	81.2355	319.336	81.8788	319.336	80.9657	319.336	81.6816	319.336	80.8658	319.336	81.5822	319.336	80.932	319.336	81.5834	319.336	81.128	319.336	81.6723	319.336	81.4001	319.336	81.8222	319.336	81.6934	319.336	81.9982	319.336	81.9615	319.336	82.1636	319.336	82.1701	319.336	82.2843	319.336	82.2974	319.336	82.3343
329.59	83.9872	329.59	83.9718	329.59	83.8915	329.59	83.8537	329.59	83.6812	329.59	83.6468	329.59	83.3583	329.59	83.3692	329.59	82.9321	329.59	83.0431	329.59	82.4215	329.59	82.6934	329.59	81.8594	329.59	82.3469	329.59	81.2962	329.59	82.0321	329.59	80.8005	329.59	81.7791	329.59	80.4494	329.59	81.616	329.59	80.3063	329.59	81.5614	329.59	80.3918	329.59	81.6164	329.59	80.6716	329.59	81.7616	329.59	81.0715	329.59	81.9623	329.59	81.5072	329.59	82.1766	329.59	81.9075	329.59	82.363	329.59	82.2233	329.59	82.4847	329.59	82.4279	329.59	82.5128
341.309	84.1816	341.309	84.1083	341.309	84.1391	341.309	83.9263	341.309	83.9798	341.309	83.6501	341.309	83.7072	341.309	83.3018	341.309	83.3297	341.309	82.91	341.309	82.8606	341.309	82.5061	341.309	82.3205	341.309	82.1199	341.309	81.7402	341.309	81.7764	341.309	81.1646	341.309	81.4964	341.309	80.6543	341.309	81.3004	341.309	80.281	341.309	81.2077	341.309	80.1096	341.309	81.2296	341.309	80.1699	341.309	81.3579	341.309	80.4359	341.309	81.5602	341.309	80.8326	341.309	81.7859	341.309	81.2659	341.309	81.9789	341.309	81.6522	341.309	82.0893	341.309	81.9335	341.309	82.0803
353.027	84.321	353.027	84.2625	353.027	84.2486	353.027	84.0754	353.027	84.048	353.027	83.7682	353.027	83.7272	353.027	83.3578	353.027	83.3009	353.027	82.8728	353.027	82.7929	353.027	82.3559	353.027	82.2386	353.027	81.8625	353.027	81.6861	353.027	81.4545	353.027	81.194	353.027	81.1847	353.027	80.8233	353.027	81.0791	353.027	80.6219	353.027	81.1279	353.027	80.6076	353.027	81.2934	353.027	80.7599	353.027	81.5273	353.027	81.0291	353.027	81.783	353.027	81.3555	353.027	82.0196	353.027	81.6841	353.027	82.2017	353.027	81.9708	353.027	82.2999	353.027	82.182	353.027	82.295
366.211	85.0219	366.211	84.9971	366.211	84.9102	366.211	84.8392	366.211	84.6612	366.211	84.5551	366.211	84.2777	366.211	84.1553	366.211	83.7683	366.211	83.6552	366.211	83.1515	366.211	83.0758	366.211	82.4622	366.211	82.4466	366.211	81.7593	366.211	81.8126	366.211	81.13	366.211	81.2428	366.211	80.6786	366.211	80.8295	366.211	80.4922	366.211	80.6609	366.211	80.5941	366.211	80.7682	366.211	80.9287	366.211	81.0984	366.211	81.3928	366.211	81.5464	366.211	81.8809	366.211	82.0071	366.211	82.3111	366.211	82.403	366.211	82.6294	366.211	82.6845	366.211	82.8046	366.211	82.8229
379.395	85.5089	379.395	85.4269	379.395	85.465	379.395	85.2243	379.395	85.2928	379.395	84.9097	379.395	84.992	379.395	84.4964	379.395	84.5648	379.395	84.0037	379.395	84.0173	379.395	83.4582	379.395	83.3616	379.395	82.8946	379.395	82.6232	379.395	82.3566	379.395	81.8511	379.395	81.8954	379.395	81.1342	379.395	81.5643	379.395	80.6056	379.395	81.4077	379.395	80.4038	379.395	81.4444	379.395	80.5828	379.395	81.6561	379.395	81.0576	379.395	81.9885	379.395	81.6618	379.395	82.3667	379.395	82.2411	379.395	82.7129	379.395	82.6947	379.395	82.9598	379.395	82.9716	379.395	83.0566
392.578	85.3087	392.578	85.2435	392.578	85.2483	392.578	85.0549	392.578	85.0631	392.578	84.7501	392.578	84.7563	392.578	84.3422	392.578	84.3338	392.578	83.8503	392.578	83.8061	392.578	83.2979	392.578	83.1913	392.578	82.7124	392.578	82.5187	392.578	82.1292	392.578	81.835	392.578	81.6	392.578	81.2106	392.578	81.1969	392.578	80.742	392.578	80.9985	392.578	80.53	392.578	81.0515	392.578	80.629	392.578	81.3363	392.578	81.0025	392.578	81.7709	392.578	81.5371	392.578	82.2467	392.578	82.0991	392.578	82.6616	392.578	82.5784	392.578	82.9371	392.578	82.9001	392.578	83.0232
405.762	85.0982	405.762	85.0708	405.762	84.9926	405.762	84.9082	405.762	84.7584	405.762	84.6129	405.762	84.4026	405.762	84.1929	405.762	83.9355	405.762	83.664	405.762	83.3721	405.762	83.0489	405.762	82.7346	405.762	82.3779	405.762	82.0539	405.762	81.6927	405.762	81.3741	405.762	81.0569	405.762	80.7577	405.762	80.5623	405.762	80.2906	405.762	80.3086	405.762	80.0662	405.762	80.3478	405.762	80.1393	405.762	80.6396	405.762	80.4773	405.762	81.0751	405.762	80.9684	405.762	81.5358	405.762	81.4802	405.762	81.9287	405.762	81.9076	405.762	82.1901	405.762	82.1852	405.762	82.2812
420.41	84.8158	420.41	84.7807	420.41	84.7242	420.41	84.6194	420.41	84.5067	420.41	84.3353	420.41	84.1639	420.41	83.9369	420.41	83.6971	420.41	83.4401	420.41	83.1094	420.41	82.8676	420.41	82.4082	420.41	82.2479	420.41	81.6102	420.41	81.6151	420.41	80.7537	420.41	81.0132	420.41	79.922	420.41	80.5049	420.41	79.2671	420.41	80.1744	420.41	78.9831	420.41	80.1041	420.41	79.1791	420.41	80.3252	420.41	79.7662	420.41	80.7792	420.41	80.5298	420.41	81.3377	420.41	81.2727	420.41	81.8577	420.41	81.8677	420.41	82.2238	420.41	82.2428	420.41	82.3628
435.059	83.8923	435.059	83.8549	435.059	83.8261	435.059	83.7057	435.059	83.6619	435.059	83.4373	435.059	83.4015	435.059	83.048	435.059	83.0451	435.059	82.545	435.059	82.5942	435.059	81.9446	435.059	82.0546	435.059	81.2718	435.059	81.4374	435.059	80.5614	435.059	80.7628	435.059	79.8679	435.059	80.0714	435.059	79.2755	435.059	79.4452	435.059	78.8902	435.059	79.0193	435.059	78.7953	435.059	78.9308	435.059	78.9965	435.059	79.2042	435.059	79.4147	435.059	79.7075	435.059	79.9293	435.059	80.2505	435.059	80.42	435.059	80.6878	435.059	80.7897	435.059	80.9396	435.059	80.9734
451.172	84.1154	451.172	84.0788	451.172	83.9912	451.172	83.8819	451.172	83.7108	451.172	83.5332	451.172	83.2834	451.172	83.0495	451.172	82.7214	451.172	82.4551	451.172	82.0397	451.172	81.7786	451.172	81.2558	451.172	81.0499	451.172	80.3907	451.172	80.3039	451.172	79.4769	451.172	79.5923	451.172	78.5785	451.172	78.9985	451.172	77.8208	451.172	78.6309	451.172	77.3924	451.172	78.5749	451.172	77.45	451.172	78.8306	451.172	77.9686	451.172	79.3047	451.172	78.7457	451.172	79.86	451.172	79.5502	451.172	80.3636	451.172	80.2177	451.172	80.7078	451.172	80.6542	451.172	80.8176
465.82	85.0886	465.82	85.0915	465.82	84.9264	465.82	84.9282	465.82	84.616	465.82	84.5962	465.82	84.1724	465.82	84.0985	465.82	83.6143	465.82	83.4414	465.82	82.9627	465.82	82.6319	465.82	82.2355	465.82	81.6757	465.82	81.4407	465.82	80.586	465.82	80.5702	465.82	79.4135	465.82	79.6078	465.82	78.3004	465.82	78.5614	465.82	77.5034	465.82	77.5251	465.82	77.254	465.82	76.7291	465.82	77.5167	465.82	76.4449	465.82	78.0243	465.82	76.7173	465.82	78.522	465.82	77.3121	465.82	78.864	465.82	77.9623	465.82	78.9839	465.82	78.5059	465.82	78.8605
483.398	85.5728	483.398	85.5818	483.398	85.4327	483.398	85.4616	483.398	85.1609	483.398	85.216	483.398	84.7596	483.398	84.8526	483.398	84.2379	483.398	84.3819	483.398	83.6173	483.398	83.812	483.398	82.934	483.398	83.141	483.398	82.2359	483.398	82.352	483.398	81.5719	483.398	81.4253	483.398	80.9831	483.398	80.3777	483.398	80.51	483.398	79.3371	483.398	80.2071	483.398	78.6064	483.398	80.1377	483.398	78.5231	483.398	80.3249	483.398	79.0871	483.398	80.7066	483.398	79.9471	483.398	81.1537	483.398	80.7647	483.398	81.5299	483.398	81.3647	483.398	81.7301	483.398	81.6868
499.512	85.7748	499.512	85.6585	499.512	85.7604	499.512	85.4286	499.512	85.5993	499.512	85.1036	499.512	85.2789	499.512	84.7021	499.512	84.7929	499.512	84.239	499.512	84.1477	499.512	83.7194	499.512	83.3693	499.512	83.1344	499.512	82.5084	499.512	82.4648	499.512	81.6389	499.512	81.6973	499.512	80.8495	499.512	80.8521	499.512	80.2368	499.512	80.0168	499.512	79.9014	499.512	79.3654	499.512	79.9174	499.512	79.1118	499.512	80.2648	499.512	79.3627	499.512	80.8083	499.512	80.0021	499.512	81.3665	499.512	80.7731	499.512	81.7874	499.512	81.4392	499.512	81.9695	499.512	81.8565
517.09	85.8906	517.09	85.8375	517.09	85.8307	517.09	85.666	517.09	85.6622	517.09	85.3776	517.09	85.3829	517.09	84.9857	517.09	84.9826	517.09	84.513	517.09	84.4477	517.09	83.9798	517.09	83.7701	517.09	83.3873	517.09	82.9561	517.09	82.71	517.09	82.0358	517.09	81.9102	517.09	81.0754	517.09	80.9847	517.09	80.205	517.09	80.0469	517.09	79.6506	517.09	79.4031	517.09	79.6638	517.09	79.4216	517.09	80.2753	517.09	80.123	517.09	81.2052	517.09	81.1357	517.09	82.1143	517.09	82.0901	517.09	82.7923	517.09	82.7872	517.09	83.1472	517.09	83.1471
536.133	84.569	536.133	84.461	536.133	84.5692	536.133	84.2486	536.133	84.4664	536.133	83.9492	536.133	84.267	536.133	83.595	536.133	83.9734	536.133	83.2269	536.133	83.5821	536.133	82.8773	536.133	83.0869	536.133	82.5456	536.133	82.4847	536.133	82.1835	536.133	81.7811	536.133	81.7053	536.133	80.9957	536.133	81.0242	536.133	80.1777	536.133	80.1136	536.133	79.4481	536.133	79.1165	536.133	79.0484	536.133	78.4784	536.133	79.241	536.133	78.7251	536.133	80.0036	536.133	79.7519	536.133	80.9853	536.133	80.9444	536.133	81.8219	536.133	81.8588	536.133	82.3001	536.133	82.3226
555.176	84.4469	555.176	84.2152	555.176	84.5381	555.176	83.8656	555.176	84.4739	555.176	83.4293	555.176	84.2452	555.176	82.9457	555.176	83.8491	555.176	82.4538	555.176	83.2905	555.176	81.9778	555.176	82.5825	555.176	81.5114	555.176	81.7483	555.176	81.0128	555.176	80.8282	555.176	80.4151	555.176	79.8973	555.176	79.6499	555.176	79.0816	555.176	78.6847	555.176	78.5362	555.176	77.5975	555.176	78.3702	555.176	76.7061	555.176	78.5793	555.176	76.5424	555.176	79.0485	555.176	77.2697	555.176	79.5977	555.176	78.3906	555.176	80.0349	555.176	79.379	555.176	80.2028	555.176	79.9987
574.219	83.3186	574.219	82.9716	574.219	83.5282	574.219	82.5074	574.219	83.5846	574.219	81.955	574.219	83.4734	574.219	81.3577	574.219	83.1832	574.219	80.7712	574.219	82.7101	574.219	80.2499	574.219	82.0617	574.219	79.8202	574.219	81.2551	574.219	79.4542	574.219	80.3111	574.219	79.0719	574.219	79.2543	574.219	78.5743	574.219	78.1455	574.219	77.8916	574.219	77.1576	574.219	77.0419	574.219	76.6171	574.219	76.2195	574.219	76.7863	574.219	75.8454	574.219	77.5194	574.219	76.2707	574.219	78.394	574.219	77.2837	574.219	79.0572	574.219	78.3431	574.219	79.311	574.219	79.0693
594.727	82.8881	594.727	82.7364	594.727	82.8879	594.727	82.4207	594.727	82.7602	594.727	81.9512	594.727	82.5283	594.727	81.3645	594.727	82.2053	594.727	80.7199	594.727	81.7939	594.727	80.0853	594.727	81.291	594.727	79.52	594.727	80.6899	594.727	79.0557	594.727	79.975	594.727	78.6798	594.727	79.1273	594.727	78.3249	594.727	78.1662	594.727	77.8946	594.727	77.2383	594.727	77.3396	594.727	76.6788	594.727	76.7784	594.727	76.8088	594.727	76.5687	594.727	77.5443	594.727	77.034	594.727	78.4743	594.727	77.9859	594.727	79.2327	594.727	78.9256	594.727	79.6095	594.727	79.5088
615.234	83.4336	615.234	83.2862	615.234	83.4314	615.234	82.9924	615.234	83.2733	615.234	82.5565	615.234	82.9591	615.234	81.9986	615.234	82.5083	615.234	81.3706	615.234	81.9665	615.234	80.7552	615.234	81.3922	615.234	80.2308	615.234	80.8274	615.234	79.8164	615.234	80.2713	615.234	79.4511	615.234	79.6859	615.234	79.0367	615.234	79.0291	615.234	78.4986	615.234	78.2867	615.234	77.8265	615.234	77.5037	615.234	77.1266	615.234	76.8524	615.234	76.6851	615.234	76.6515	615.234	76.8255	615.234	77.0678	615.234	77.4758	615.234	77.8018	615.234	78.1747	615.234	78.3837	615.234	78.5283
637.207	84.0633	637.207	83.7768	637.207	84.2357	637.207	83.3919	637.207	84.2872	637.207	82.9364	637.207	84.2064	637.207	82.44	637.207	83.9673	637.207	81.9315	637.207	83.5359	637.207	81.4528	637.207	82.8876	637.207	81.0706	637.207	82.0273	637.207	80.8384	637.207	81.0073	637.207	80.7117	637.207	79.9501	637.207	80.5296	637.207	79.0673	637.207	80.115	637.207	78.6096	637.207	79.4016	637.207	78.7066	637.207	78.5565	637.207	79.2756	637.207	78.0979	637.207	80.1204	637.207	78.5866	637.207	81.0168	637.207	79.8094	637.207	81.7308	637.207	81.0455	637.207	82.0522	637.207	81.8376
659.18	85.2698	659.18	85.1824	659.18	85.1237	659.18	84.8429	659.18	84.7952	659.18	84.2757	659.18	84.3481	659.18	83.5498	659.18	83.8348	659.18	82.7636	659.18	83.2799	659.18	82.0131	659.18	82.6808	659.18	81.3634	659.18	82.0111	659.18	80.8486	659.18	81.2151	659.18	80.4731	659.18	80.2111	659.18	80.1803	659.18	78.9634	659.18	79.8473	659.18	77.6795	659.18	79.3739	659.18	77.0127	659.18	78.8131	659.18	77.5	659.18	78.4539	659.18	78.6884	659.18	78.6684	659.18	79.8724	659.18	79.4499	659.18	80.7157	659.18	80.3547	659.18	81.0962	659.18	80.966
682.617	85.8721	682.617	85.8285	682.617	85.6495	682.617	85.4999	682.617	85.2063	682.617	84.9025	682.617	84.6068	682.617	84.0925	682.617	83.9257	682.617	83.1685	682.617	83.2378	682.617	82.2665	682.617	82.5969	682.617	81.5342	682.617	82.0086	682.617	81.0683	682.617	81.4263	682.617	80.8448	682.617	80.7795	682.617	80.7172	682.617	80.0104	682.617	80.4946	682.617	79.1101	682.617	80.0348	682.617	78.1986	682.617	79.3407	682.617	77.6737	682.617	78.7297	682.617	78.101	682.617	78.8543	682.617	79.4116	682.617	79.886	682.617	80.821	682.617	81.0923	682.617	81.6976	682.617	81.7874
707.52	86.0191	707.52	85.6839	707.52	86.0809	707.52	85.1237	707.52	85.8448	707.52	84.4028	707.52	85.3195	707.52	83.5919	707.52	84.5577	707.52	82.7617	707.52	83.6541	707.52	81.9943	707.52	82.7186	707.52	81.3793	707.52	81.8278	707.52	80.9558	707.52	80.983	707.52	80.6668	707.52	80.1071	707.52	80.3988	707.52	79.1225	707.52	80.044	707.52	78.1693	707.52	79.5381	707.52	77.8315	707.52	78.917	707.52	78.5577	707.52	78.4411	707.52	79.8456	707.52	78.6347	707.52	81.0475	707.52	79.692	707.52	81.8898	707.52	81.0119	707.52	82.2294	707.52	81.9425
732.422	85.1647	732.422	85.038	732.422	85.0955	732.422	84.7362	732.422	84.8225	732.422	84.2829	732.422	84.3578	732.422	83.7004	732.422	83.7299	732.422	83.0114	732.422	82.9733	732.422	82.2568	732.422	82.1253	732.422	81.524	732.422	81.234	732.422	80.9358	732.422	80.351	732.422	80.549	732.422	79.478	732.422	80.2605	732.422	78.5139	732.422	79.8677	732.422	77.3349	732.422	79.1949	732.422	76.1223	732.422	78.1709	732.422	75.799	732.422	76.9715	732.422	76.9635	732.422	76.3266	732.422	78.5557	732.422	77.0169	732.422	79.6382	732.422	78.4243	732.422	79.9688	732.422	79.5386
757.324	83.8667	757.324	83.7529	757.324	83.8697	757.324	83.5616	757.324	83.6817	757.324	83.2783	757.324	83.221	757.324	82.8708	757.324	82.4613	757.324	82.3213	757.324	81.461	757.324	81.6486	757.324	80.3449	757.324	80.9194	757.324	79.2494	757.324	80.2408	757.324	78.287	757.324	79.7189	757.324	77.5209	757.324	79.3845	757.324	76.8533	757.324	79.1367	757.324	75.9994	757.324	78.8047	757.324	74.7321	757.324	78.3344	757.324	73.28	757.324	77.9281	757.324	72.8966	757.324	77.8967	757.324	74.5543	757.324	78.2646	757.324	76.7456	757.324	78.7055	757.324	78.2262	757.324	78.8092
785.156	82.1471	785.156	82.0794	785.156	81.9359	785.156	81.7593	785.156	81.4745	785.156	81.2241	785.156	80.8352	785.156	80.4837	785.156	80.0814	785.156	79.5739	785.156	79.2269	785.156	78.6679	785.156	78.2389	785.156	78.0368	785.156	77.0915	785.156	77.7999	785.156	75.8242	785.156	77.8204	785.156	74.5047	785.156	77.807	785.156	73.0705	785.156	77.4107	785.156	71.3625	785.156	76.3237	785.156	69.7666	785.156	74.3961	785.156	70.0137	785.156	72.2332	785.156	72.3544	785.156	72.4691	785.156	74.862	785.156	75.0013	785.156	76.7319	785.156	77.061	785.156	77.8089	785.156	77.9716
811.523	81.4807	811.523	81.5994	811.523	81.2569	811.523	81.5931	811.523	80.8909	811.523	81.3791	811.523	80.333	811.523	80.8379	811.523	79.6298	811.523	79.8917	811.523	78.9564	811.523	78.611	811.523	78.3789	811.523	77.2559	811.523	77.669	811.523	76.1531	811.523	76.5903	811.523	75.5873	811.523	75.318	811.523	75.7925	811.523	74.4273	811.523	76.4583	811.523	73.9402	811.523	76.7156	811.523	72.9963	811.523	75.9595	811.523	71.0547	811.523	74.286	811.523	69.97	811.523	73.0703	811.523	72.1102	811.523	73.762	811.523	74.3742	811.523	75.0392	811.523	75.5294	811.523	75.7096
840.82	83.1263	840.82	83.1983	840.82	83.0563	840.82	83.1955	840.82	82.9258	840.82	82.9609	840.82	82.5884	840.82	82.357	840.82	81.9514	840.82	81.3363	840.82	81.0858	840.82	80.0082	840.82	80.1999	840.82	78.7069	840.82	79.4237	840.82	77.8671	840.82	78.6202	840.82	77.5859	840.82	77.5757	840.82	77.57	840.82	76.3347	840.82	77.5701	840.82	75.2624	840.82	77.418	840.82	74.6927	840.82	76.8451	840.82	74.4355	840.82	75.7781	840.82	73.9845	840.82	75.1118	840.82	73.5917	840.82	75.9747	840.82	74.5344	840.82	77.1679	840.82	76.3114	840.82	77.3652
870.117	84.3081	870.117	84.2732	870.117	84.0353	870.117	83.9649	870.117	83.4744	870.117	83.411	870.117	82.6981	870.117	82.5483	870.117	81.823	870.117	81.2425	870.117	80.993	870.117	79.4751	870.117	80.2879	870.117	77.6166	870.117	79.6899	870.117	76.3812	870.117	79.2401	870.117	76.1418	870.117	79.0109	870.117	76.7003	870.117	78.7706	870.117	77.4567	870.117	77.9656	870.117	77.6708	870.117	76.0673	870.117	76.8964	870.117	73.25	870.117	75.0462	870.117	72.3756	870.117	73.0769	870.117	74.1425	870.117	73.6262	870.117	75.6615	870.117	75.5704	870.117	76.5379	870.117	76.624
900.879	84.6602	900.879	84.9529	900.879	84.2992	900.879	85.1374	900.879	83.7991	900.879	85.0945	900.879	82.9808	900.879	84.6767	900.879	81.6581	900.879	83.7802	900.879	79.835	900.879	82.4058	900.879	77.8695	900.879	80.6882	900.879	76.2027	900.879	78.9098	900.879	74.9124	900.879	77.4754	900.879	74.432	900.879	76.805	900.879	75.3111	900.879	77.0741	900.879	76.4706	900.879	77.7516	900.879	76.6764	900.879	78.012	900.879	75.4503	900.879	77.6493	900.879	73.1536	900.879	77.2363	900.879	72.3139	900.879	77.1668	900.879	73.8971	900.879	77.0162	900.879	75.4704	900.879	76.4714
933.105	86.3931	933.105	86.1912	933.105	86.3957	933.105	85.8831	933.105	86.0695	933.105	85.4718	933.105	85.2874	933.105	84.8196	933.105	83.9624	933.105	83.712	933.105	82.0945	933.105	82.0917	933.105	79.8859	933.105	80.3644	933.105	77.9111	933.105	79.2711	933.105	76.6907	933.105	78.9068	933.105	75.9446	933.105	78.7838	933.105	75.4569	933.105	78.7667	933.105	75.254	933.105	78.8099	933.105	74.8719	933.105	78.4351	933.105	74.0524	933.105	77.3801	933.105	73.6144	933.105	76.7744	933.105	74.5534	933.105	77.731	933.105	76.1529	933.105	78.6469	933.105	77.5873	933.105	78.5381
965.332	87.3093	965.332	87.2575	965.332	87.0426	965.332	86.8701	965.332	86.5072	965.332	86.1605	965.332	85.7429	965.332	85.1049	965.332	84.7588	965.332	83.6073	965.332	83.5226	965.332	81.586	965.332	81.9291	965.332	79.1377	965.332	79.8296	965.332	76.7643	965.332	77.314	965.332	75.4814	965.332	75.4021	965.332	75.7756	965.332	75.2672	965.332	76.7892	965.332	75.8243	965.332	77.565	965.332	75.9618	965.332	77.601	965.332	75.6191	965.332	76.849	965.332	75.1494	965.332	76.8151	965.332	75.3566	965.332	78.8881	965.332	77.0193	965.332	80.5908	965.332	79.2302	965.332	80.6544
1,000.49	87.0189	1,000.49	86.722	1,000.49	86.8969	1,000.49	86.0873	1,000.49	86.3817	1,000.49	85.2645	1,000.49	85.5555	1,000.49	84.3203	1,000.49	84.4818	1,000.49	83.126	1,000.49	83.2059	1,000.49	81.4595	1,000.49	81.8985	1,000.49	79.2047	1,000.49	80.7467	1,000.49	76.4862	1,000.49	79.3971	1,000.49	73.5137	1,000.49	77.15	1,000.49	71.1964	1,000.49	74.2952	1,000.49	73.3864	1,000.49	73.679	1,000.49	76.468	1,000.49	74.7084	1,000.49	77.5014	1,000.49	74.4814	1,000.49	76.4784	1,000.49	73.7271	1,000.49	74.5151	1,000.49	75.2207	1,000.49	75.0001	1,000.49	77.2743	1,000.49	77.1608	1,000.49	78.3484	1,000.49	78.3714
1,035.64	86.5754	1,035.64	86.5778	1,035.64	86.4282	1,035.64	86.3533	1,035.64	86.2227	1,035.64	85.8727	1,035.64	85.8927	1,035.64	85.0636	1,035.64	85.2454	1,035.64	83.772	1,035.64	84.1591	1,035.64	81.8709	1,035.64	82.6952	1,035.64	79.3858	1,035.64	81.0446	1,035.64	76.4994	1,035.64	79.4068	1,035.64	73.7678	1,035.64	78.0935	1,035.64	72.4753	1,035.64	77.6756	1,035.64	73.0305	1,035.64	77.9734	1,035.64	74.6306	1,035.64	77.9536	1,035.64	75.8279	1,035.64	77.0095	1,035.64	75.1565	1,035.64	75.0962	1,035.64	74.129	1,035.64	73.5318	1,035.64	77.0887	1,035.64	74.9508	1,035.64	79.3966	1,035.64	77.6393	1,035.64	79.4081
1,072.27	86.9927	1,072.27	86.7354	1,072.27	86.9453	1,072.27	86.1809	1,072.27	86.6005	1,072.27	85.3764	1,072.27	85.9184	1,072.27	84.3763	1,072.27	84.8202	1,072.27	83.1846	1,072.27	83.3056	1,072.27	81.6972	1,072.27	81.6571	1,072.27	79.8586	1,072.27	80.4161	1,072.27	78.0761	1,072.27	79.5399	1,072.27	77.0657	1,072.27	78.1719	1,072.27	75.7376	1,072.27	76.1478	1,072.27	71.5474	1,072.27	75.1942	1,072.27	68.7279	1,072.27	75.5398	1,072.27	73.9984	1,072.27	75.435	1,072.27	75.5191	1,072.27	75.816	1,072.27	74.1796	1,072.27	76.7994	1,072.27	74.2225	1,072.27	77.0714	1,072.27	76.8319	1,072.27	77.3903	1,072.27	77.849
1,108.89	86.3016	1,108.89	85.8332	1,108.89	86.5784	1,108.89	85.3328	1,108.89	86.5671	1,108.89	84.865	1,108.89	86.2181	1,108.89	84.2655	1,108.89	85.4947	1,108.89	83.3831	1,108.89	84.3614	1,108.89	82.2977	1,108.89	82.8047	1,108.89	81.0604	1,108.89	81.0136	1,108.89	79.3519	1,108.89	79.5688	1,108.89	77.3245	1,108.89	78.5772	1,108.89	76.7672	1,108.89	77.491	1,108.89	76.8132	1,108.89	77.0047	1,108.89	75.8008	1,108.89	77.4457	1,108.89	74.9677	1,108.89	76.9722	1,108.89	74.2694	1,108.89	74.972	1,108.89	70.7719	1,108.89	74.5853	1,108.89	72.8632	1,108.89	77.1329	1,108.89	77.7539	1,108.89	78.9242	1,108.89	79.2767
1,148.44	86.4975	1,148.44	86.2492	1,148.44	86.5523	1,148.44	85.7729	1,148.44	86.4659	1,148.44	85.0336	1,148.44	86.2527	1,148.44	83.915	1,148.44	85.8394	1,148.44	82.4511	1,148.44	85.0065	1,148.44	81.0515	1,148.44	83.4707	1,148.44	79.9007	1,148.44	81.2996	1,148.44	78.5314	1,148.44	79.2376	1,148.44	76.875	1,148.44	77.3839	1,148.44	75.6032	1,148.44	75.3201	1,148.44	74.4275	1,148.44	75.3215	1,148.44	73.5793	1,148.44	76.5526	1,148.44	74.6819	1,148.44	76.0917	1,148.44	75.1847	1,148.44	75.5479	1,148.44	72.5136	1,148.44	76.716	1,148.44	72.1039	1,148.44	77.5123	1,148.44	76.3888	1,148.44	77.9152	1,148.44	78.0113
1,189.45	86.196	1,189.45	85.6414	1,189.45	86.3946	1,189.45	84.8542	1,189.45	86.1343	1,189.45	83.7861	1,189.45	85.4844	1,189.45	82.245	1,189.45	84.6151	1,189.45	80.2511	1,189.45	83.6334	1,189.45	78.3683	1,189.45	82.4891	1,189.45	77.233	1,189.45	80.9922	1,189.45	76.3325	1,189.45	79.0891	1,189.45	74.6134	1,189.45	77.0508	1,189.45	72.832	1,189.45	75.0058	1,189.45	73.5897	1,189.45	73.0298	1,189.45	75.0581	1,189.45	73.4644	1,189.45	75.5681	1,189.45	75.0414	1,189.45	75.6063	1,189.45	75.072	1,189.45	73.7657	1,189.45	75.4793	1,189.45	67.7807	1,189.45	77.9151	1,189.45	73.2464	1,189.45	79.1455	1,189.45	77.9308
1,230.47	85.0852	1,230.47	84.0674	1,230.47	85.4803	1,230.47	82.7162	1,230.47	85.1079	1,230.47	81.3473	1,230.47	84.1339	1,230.47	80.1181	1,230.47	83.1065	1,230.47	78.8262	1,230.47	82.4672	1,230.47	77.2864	1,230.47	81.7479	1,230.47	75.8298	1,230.47	80.2162	1,230.47	74.3311	1,230.47	77.9276	1,230.47	71.5747	1,230.47	75.6882	1,230.47	68.3597	1,230.47	73.8236	1,230.47	68.048	1,230.47	73.2584	1,230.47	70.0706	1,230.47	74.5415	1,230.47	73.358	1,230.47	74.9986	1,230.47	75.265	1,230.47	74.0997	1,230.47	73.7434	1,230.47	74.5334	1,230.47	68.1745	1,230.47	76.4518	1,230.47	72.1619	1,230.47	77.0904	1,230.47	75.9652
1,274.41	83.7734	1,274.41	82.9172	1,274.41	84.0437	1,274.41	81.5452	1,274.41	83.7488	1,274.41	79.8005	1,274.41	83.0581	1,274.41	77.8216	1,274.41	82.2527	1,274.41	75.5759	1,274.41	81.4331	1,274.41	72.857	1,274.41	80.3268	1,274.41	69.6688	1,274.41	78.5982	1,274.41	67.0757	1,274.41	76.3268	1,274.41	65.624	1,274.41	74.1314	1,274.41	63.4981	1,274.41	72.6129	1,274.41	55.4735	1,274.41	71.6026	1,274.41	61.7197	1,274.41	70.885	1,274.41	67.3964	1,274.41	70.9807	1,274.41	68.6843	1,274.41	71.4829	1,274.41	67.798	1,274.41	72.8812	1,274.41	65.8494	1,274.41	74.9436	1,274.41	71.1287	1,274.41	75.8951	1,274.41	74.9275
1,319.82	83.1006	1,319.82	82.2536	1,319.82	83.6566	1,319.82	80.9111	1,319.82	83.7229	1,319.82	78.7335	1,319.82	83.1061	1,319.82	75.8695	1,319.82	81.8396	1,319.82	73.1296	1,319.82	80.1356	1,319.82	70.6043	1,319.82	78.4192	1,319.82	67.0397	1,319.82	76.646	1,319.82	63.0992	1,319.82	74.3222	1,319.82	63.7007	1,319.82	72.5449	1,319.82	65.9283	1,319.82	72.1616	1,319.82	65.0406	1,319.82	71.5985	1,319.82	60.3292	1,319.82	72.026	1,319.82	66.4889	1,319.82	72.3482	1,319.82	71.1277	1,319.82	70.454	1,319.82	70.9315	1,319.82	70.8578	1,319.82	63.3485	1,319.82	74.2786	1,319.82	66.8609	1,319.82	75.452	1,319.82	73.7359
1,366.7	84.151	1,366.7	83.3443	1,366.7	84.6162	1,366.7	81.6329	1,366.7	84.7822	1,366.7	78.9462	1,366.7	84.429	1,366.7	76.6302	1,366.7	83.6342	1,366.7	75.9239	1,366.7	82.4045	1,366.7	75.6138	1,366.7	80.4229	1,366.7	74.544	1,366.7	77.696	1,366.7	72.8347	1,366.7	74.6502	1,366.7	71.7038	1,366.7	72.1747	1,366.7	72.3655	1,366.7	70.942	1,366.7	72.2673	1,366.7	69.1683	1,366.7	67.9093	1,366.7	71.0948	1,366.7	60.3432	1,366.7	73.3225	1,366.7	71.7816	1,366.7	73.7707	1,366.7	73.6744	1,366.7	75.1043	1,366.7	68.8933	1,366.7	76.063	1,366.7	62.7299	1,366.7	75.9257	1,366.7	73.6968
1,413.57	83.9158	1,413.57	82.5633	1,413.57	84.8005	1,413.57	80.6165	1,413.57	85.2923	1,413.57	79.4176	1,413.57	85.2631	1,413.57	79.8408	1,413.57	84.8314	1,413.57	80.2482	1,413.57	84.0987	1,413.57	79.7052	1,413.57	82.8949	1,413.57	78.3391	1,413.57	81.4883	1,413.57	76.9613	1,413.57	80.1165	1,413.57	75.3749	1,413.57	77.487	1,413.57	74.0576	1,413.57	72.8005	1,413.57	75.5155	1,413.57	70.6035	1,413.57	74.9528	1,413.57	67.9383	1,413.57	67.5335	1,413.57	71.8652	1,413.57	68.563	1,413.57	75.1279	1,413.57	74.356	1,413.57	76.0987	1,413.57	72.821	1,413.57	77.3808	1,413.57	58.0327	1,413.57	76.6439	1,413.57	72.19
1,463.38	83.6263	1,463.38	81.9879	1,463.38	85.0522	1,463.38	80.8332	1,463.38	85.9636	1,463.38	81.2302	1,463.38	85.9224	1,463.38	81.5761	1,463.38	85.2107	1,463.38	81.6358	1,463.38	84.5915	1,463.38	81.6833	1,463.38	84.251	1,463.38	81.0926	1,463.38	83.7798	1,463.38	79.8265	1,463.38	82.7168	1,463.38	78.5138	1,463.38	80.3795	1,463.38	78.4167	1,463.38	77.2109	1,463.38	79.8658	1,463.38	76.3506	1,463.38	79.9242	1,463.38	75.4591	1,463.38	76.4814	1,463.38	75.8034	1,463.38	62.6495	1,463.38	74.1967	1,463.38	76.7555	1,463.38	74.883	1,463.38	77.4085	1,463.38	78.1134	1,463.38	62.6567	1,463.38	77.5838	1,463.38	73.6731
1,516.11	83.8877	1,516.11	84.8377	1,516.11	83.2331	1,516.11	86.118	1,516.11	83.7552	1,516.11	87.1754	1,516.11	84.3948	1,516.11	87.1045	1,516.11	84.0566	1,516.11	86.248	1,516.11	83.3621	1,516.11	85.3399	1,516.11	83.3294	1,516.11	83.9676	1,516.11	83.3328	1,516.11	81.7909	1,516.11	82.6085	1,516.11	78.8288	1,516.11	81.0705	1,516.11	77.1832	1,516.11	78.3383	1,516.11	79.0916	1,516.11	78.1926	1,516.11	80.9201	1,516.11	79.4938	1,516.11	81.1552	1,516.11	78.0318	1,516.11	77.9464	1,516.11	74.3291	1,516.11	78.4494	1,516.11	75.7932	1,516.11	79.969	1,516.11	78.2741	1,516.11	75.048	1,516.11	74.544	1,516.11	56.6652
1,568.85	87.8716	1,568.85	88.8402	1,568.85	85.9632	1,568.85	89.0614	1,568.85	83.574	1,568.85	88.7039	1,568.85	81.4233	1,568.85	87.6359	1,568.85	79.4636	1,568.85	85.9742	1,568.85	78.2704	1,568.85	84.18	1,568.85	78.5288	1,568.85	82.1754	1,568.85	78.5116	1,568.85	79.697	1,568.85	77.7432	1,568.85	76.1878	1,568.85	76.9966	1,568.85	69.2658	1,568.85	74.8084	1,568.85	71.557	1,568.85	71.5855	1,568.85	76.5862	1,568.85	71.7681	1,568.85	78.354	1,568.85	72.9908	1,568.85	76.9405	1,568.85	72.5881	1,568.85	77.2252	1,568.85	69.1759	1,568.85	79.1714	1,568.85	71.8319	1,568.85	76.2511	1,568.85	73.6007	1,568.85	71.9188
1,624.51	87.4535	1,624.51	87.5845	1,624.51	86.4347	1,624.51	87.6187	1,624.51	84.6013	1,624.51	87.3885	1,624.51	83.2389	1,624.51	86.1559	1,624.51	82.3169	1,624.51	84.0499	1,624.51	80.3125	1,624.51	81.7992	1,624.51	77.4751	1,624.51	79.4642	1,624.51	75.9028	1,624.51	77.0227	1,624.51	75.8905	1,624.51	74.3551	1,624.51	75.5866	1,624.51	69.9846	1,624.51	72.8	1,624.51	68.1339	1,624.51	67.4399	1,624.51	73.1959	1,624.51	64.5488	1,624.51	75.8988	1,624.51	69.3707	1,624.51	74.1185	1,624.51	72.3722	1,624.51	74.3446	1,624.51	66.3297	1,624.51	77.1709	1,624.51	68.9095	1,624.51	73.634	1,624.51	73.7327	1,624.51	70.3776
1,681.64	86.361	1,681.64	86.6801	1,681.64	85.9632	1,681.64	87.0481	1,681.64	84.9513	1,681.64	86.5688	1,681.64	83.4777	1,681.64	84.9663	1,681.64	82.2896	1,681.64	83.1181	1,681.64	80.5943	1,681.64	81.2635	1,681.64	76.8888	1,681.64	78.0858	1,681.64	73.6986	1,681.64	73.5161	1,681.64	74.4376	1,681.64	71.7415	1,681.64	73.436	1,681.64	68.4731	1,681.64	71.733	1,681.64	58.1421	1,681.64	71.1086	1,681.64	64.4341	1,681.64	70.0892	1,681.64	73.4899	1,681.64	70.6575	1,681.64	75.1533	1,681.64	73.6751	1,681.64	70.065	1,681.64	70.3078	1,681.64	72.8743	1,681.64	69.1304	1,681.64	73.0741	1,681.64	69.4105	1,681.64	68.6657
1,741.7	85.3026	1,741.7	85.5477	1,741.7	85.0382	1,741.7	85.6786	1,741.7	84.2565	1,741.7	85.0152	1,741.7	82.8291	1,741.7	83.1584	1,741.7	81.4672	1,741.7	80.6865	1,741.7	80.2084	1,741.7	78.2097	1,741.7	77.8199	1,741.7	75.1234	1,741.7	72.7591	1,741.7	70.2827	1,741.7	69.3517	1,741.7	68.0815	1,741.7	70.7255	1,741.7	71.833	1,741.7	71.77	1,741.7	70.0862	1,741.7	70.965	1,741.7	62.1608	1,741.7	70.3125	1,741.7	63.1652	1,741.7	71.5018	1,741.7	70.9876	1,741.7	69.2929	1,741.7	71.2281	1,741.7	62.1496	1,741.7	69.4286	1,741.7	59.3157	1,741.7	69.2342	1,741.7	65.6054	1,741.7	68.9242
1,803.22	85.7131	1,803.22	85.3428	1,803.22	85.1622	1,803.22	84.2585	1,803.22	84.1712	1,803.22	83.1967	1,803.22	82.9411	1,803.22	81.8985	1,803.22	81.092	1,803.22	80.1098	1,803.22	78.888	1,803.22	78.7924	1,803.22	77.4026	1,803.22	76.8891	1,803.22	75.7827	1,803.22	73.4744	1,803.22	72.3081	1,803.22	69.5415	1,803.22	69.0492	1,803.22	61.1731	1,803.22	67.8665	1,803.22	68.352	1,803.22	64.2023	1,803.22	69.9759	1,803.22	63.0796	1,803.22	63.0871	1,803.22	66.4781	1,803.22	68.5995	1,803.22	68.0785	1,803.22	67.6914	1,803.22	66.0674	1,803.22	68.5556	1,803.22	66.7422	1,803.22	68.4207	1,803.22	67.4987	1,803.22	66.2637
1,866.21	85.8002	1,866.21	85.481	1,866.21	84.8728	1,866.21	83.6384	1,866.21	83.6401	1,866.21	82.2481	1,866.21	82.4088	1,866.21	81.7384	1,866.21	80.7287	1,866.21	80.2106	1,866.21	78.0996	1,866.21	78.0563	1,866.21	75.9137	1,866.21	75.1764	1,866.21	74.9268	1,866.21	71.1072	1,866.21	72.1806	1,866.21	69.6377	1,866.21	69.0476	1,866.21	67.6679	1,866.21	64.9	1,866.21	61.5007	1,866.21	53.8258	1,866.21	68.9923	1,866.21	59.5075	1,866.21	65.5541	1,866.21	65.3627	1,866.21	66.839	1,866.21	68.8097	1,866.21	67.9044	1,866.21	66.1816	1,866.21	66.8066	1,866.21	64.1805	1,866.21	68.3127	1,866.21	66.4553	1,866.21	67.157
1,932.13	84.6909	1,932.13	84.1589	1,932.13	84.2664	1,932.13	83.1259	1,932.13	83.2814	1,932.13	82.1707	1,932.13	81.9817	1,932.13	80.285	1,932.13	80.2101	1,932.13	78.1494	1,932.13	78.0528	1,932.13	76.1328	1,932.13	75.2911	1,932.13	72.6743	1,932.13	73.1141	1,932.13	71.1584	1,932.13	71.1647	1,932.13	67.733	1,932.13	67.7188	1,932.13	62.9218	1,932.13	64.8019	1,932.13	62.1055	1,932.13	61.5125	1,932.13	66.5881	1,932.13	62.1922	1,932.13	67.4341	1,932.13	65.1827	1,932.13	60.7909	1,932.13	67.3737	1,932.13	66.2554	1,932.13	65.0339	1,932.13	64.9771	1,932.13	61.9514	1,932.13	65.7541	1,932.13	65.0926	1,932.13	65.729
1,999.51	82.9424	1,999.51	82.5011	1,999.51	83.1828	1,999.51	82.4283	1,999.51	82.6379	1,999.51	81.4107	1,999.51	81.456	1,999.51	78.788	1,999.51	79.6144	1,999.51	76.4156	1,999.51	77.369	1,999.51	74.064	1,999.51	75.0281	1,999.51	70.3435	1,999.51	72.4875	1,999.51	67.7232	1,999.51	70.5676	1,999.51	67.5022	1,999.51	66.7292	1,999.51	65.3614	1,999.51	64.9835	1,999.51	56.1512	1,999.51	64.3268	1,999.51	61.5891	1,999.51	60.9873	1,999.51	66.5936	1,999.51	62.585	1,999.51	61.9277	1,999.51	65.7891	1,999.51	63.9437	1,999.51	65.1424	1,999.51	64.4354	1,999.51	64.0716	1,999.51	64.1155	1,999.51	62.7625	1,999.51	62.5248
2,069.82	82.7797	2,069.82	81.9333	2,069.82	82.6246	2,069.82	81.3866	2,069.82	81.6425	2,069.82	80.5517	2,069.82	80.8246	2,069.82	78.6585	2,069.82	79.5687	2,069.82	76.1281	2,069.82	77.1815	2,069.82	73.5948	2,069.82	74.2502	2,069.82	72.3946	2,069.82	71.2249	2,069.82	70.2155	2,069.82	67.1702	2,069.82	67.0285	2,069.82	56.8646	2,069.82	64.1581	2,069.82	59.1497	2,069.82	64.0335	2,069.82	64.6194	2,069.82	42.9405	2,069.82	62.8003	2,069.82	64.3123	2,069.82	59.603	2,069.82	62.0476	2,069.82	62.4029	2,069.82	63.8475	2,069.82	61.6618	2,069.82	64.0972	2,069.82	60.4685	2,069.82	61.3944	2,069.82	62.9538	2,069.82	61.3666
2,143.07	83.3773	2,143.07	82.5867	2,143.07	83.1364	2,143.07	81.0686	2,143.07	81.8097	2,143.07	79.3624	2,143.07	80.0803	2,143.07	77.8145	2,143.07	78.7444	2,143.07	76.6356	2,143.07	76.8811	2,143.07	74.9374	2,143.07	74.0586	2,143.07	72.6714	2,143.07	71.0741	2,143.07	69.4262	2,143.07	68.2314	2,143.07	67.1838	2,143.07	63.0027	2,143.07	63.7892	2,143.07	56.9767	2,143.07	63.7509	2,143.07	60.5675	2,143.07	59.2817	2,143.07	63.0124	2,143.07	62.9939	2,143.07	55.8907	2,143.07	63.881	2,143.07	58.5687	2,143.07	59.5685	2,143.07	59.4162	2,143.07	64.5258	2,143.07	59.2021	2,143.07	62.371	2,143.07	61.5388	2,143.07	61.0188
2,219.24	82.7719	2,219.24	82.6121	2,219.24	83.1007	2,219.24	81.4403	2,219.24	82.6367	2,219.24	79.3878	2,219.24	80.7342	2,219.24	78.3934	2,219.24	78.7562	2,219.24	77.2027	2,219.24	76.976	2,219.24	74.3243	2,219.24	74.4397	2,219.24	72.9344	2,219.24	71.7729	2,219.24	70.1515	2,219.24	68.9097	2,219.24	62.9047	2,219.24	65.2424	2,219.24	62.8656	2,219.24	62.0156	2,219.24	60.6643	2,219.24	58.7858	2,219.24	60.1724	2,219.24	60.1411	2,219.24	55.6226	2,219.24	58.7913	2,219.24	62.921	2,219.24	53.8035	2,219.24	55.4495	2,219.24	56.0837	2,219.24	64.2161	2,219.24	59.3179	2,219.24	63.5032	2,219.24	60.1617	2,219.24	60.4657
2,296.88	81.9269	2,296.88	81.7329	2,296.88	82.1078	2,296.88	81.5219	2,296.88	82.3748	2,296.88	80.5049	2,296.88	81.5341	2,296.88	78.2536	2,296.88	79.4149	2,296.88	75.9965	2,296.88	77.5371	2,296.88	73.7265	2,296.88	75.4825	2,296.88	69.3401	2,296.88	71.7929	2,296.88	63.9043	2,296.88	66.1727	2,296.88	63.2846	2,296.88	65.9446	2,296.88	58.7761	2,296.88	66.2998	2,296.88	62.4729	2,296.88	62.6175	2,296.88	60.1281	2,296.88	60.134	2,296.88	54.2738	2,296.88	58.6743	2,296.88	59.0958	2,296.88	58.3551	2,296.88	55.7208	2,296.88	58.6401	2,296.88	59.6931	2,296.88	56.6982	2,296.88	60.9424	2,296.88	58.8105	2,296.88	56.7449
2,378.91	82.5278	2,378.91	81.8174	2,378.91	82.3184	2,378.91	81.4196	2,378.91	81.7914	2,378.91	80.6123	2,378.91	81.3291	2,378.91	78.2524	2,378.91	79.8184	2,378.91	75.4337	2,378.91	77.5414	2,378.91	73.2294	2,378.91	75.209	2,378.91	71.8482	2,378.91	72.4692	2,378.91	68.9687	2,378.91	68.9872	2,378.91	66.1349	2,378.91	66.2614	2,378.91	64.3723	2,378.91	67.4133	2,378.91	49.7347	2,378.91	63.6091	2,378.91	60.7664	2,378.91	61.1787	2,378.91	55.3225	2,378.91	57.1873	2,378.91	57.6547	2,378.91	56.5017	2,378.91	55.1089	2,378.91	58.446	2,378.91	56.2044	2,378.91	55.6231	2,378.91	57.8165	2,378.91	58.438	2,378.91	56.1998
2,462.4	83.0903	2,462.4	82.8633	2,462.4	83.0564	2,462.4	81.7362	2,462.4	82.0889	2,462.4	80.1259	2,462.4	81.1546	2,462.4	78.9833	2,462.4	79.7733	2,462.4	76.5742	2,462.4	77.444	2,462.4	75.1412	2,462.4	75.1544	2,462.4	72.0495	2,462.4	73.5445	2,462.4	67.9566	2,462.4	70.8072	2,462.4	65.5242	2,462.4	66.1552	2,462.4	55.018	2,462.4	65.5167	2,462.4	55.7005	2,462.4	64.641	2,462.4	55.4042	2,462.4	59.1207	2,462.4	59.8282	2,462.4	56.6617	2,462.4	51.4385	2,462.4	54.8588	2,462.4	55.4321	2,462.4	59.443	2,462.4	55.5699	2,462.4	58.3885	2,462.4	57.6291	2,462.4	58.3702	2,462.4	55.0506
2,548.83	83.2445	2,548.83	83.6277	2,548.83	83.1689	2,548.83	82.7046	2,548.83	82.7689	2,548.83	81.0489	2,548.83	81.3486	2,548.83	79.9927	2,548.83	79.6957	2,548.83	78.078	2,548.83	78.2949	2,548.83	73.6144	2,548.83	75.7675	2,548.83	70.9011	2,548.83	72.3541	2,548.83	69.6788	2,548.83	69.5143	2,548.83	60.1321	2,548.83	67.9004	2,548.83	60.9265	2,548.83	66.145	2,548.83	57.878	2,548.83	64.4414	2,548.83	53.7258	2,548.83	53.4911	2,548.83	58.4721	2,548.83	55.2557	2,548.83	56.334	2,548.83	56.955	2,548.83	57.6296	2,548.83	61.2203	2,548.83	53.8883	2,548.83	59.1654	2,548.83	57.9895	2,548.83	59.0795	2,548.83	53.9572
2,639.65	85.0258	2,639.65	84.7451	2,639.65	84.1361	2,639.65	84.0243	2,639.65	83.2169	2,639.65	82.9112	2,639.65	82.5461	2,639.65	80.4944	2,639.65	80.3964	2,639.65	77.3668	2,639.65	77.6493	2,639.65	74.4853	2,639.65	75.4688	2,639.65	69.4068	2,639.65	72.3366	2,639.65	63.4577	2,639.65	70.0658	2,639.65	65.2581	2,639.65	70.3293	2,639.65	57.454	2,639.65	64.2143	2,639.65	62.4836	2,639.65	62.5292	2,639.65	55.623	2,639.65	59.8417	2,639.65	56.9421	2,639.65	57.7771	2,639.65	57.6108	2,639.65	60.6689	2,639.65	55.3459	2,639.65	62.3329	2,639.65	55.9965	2,639.65	60.2734	2,639.65	57.8569	2,639.65	58.5101	2,639.65	50.2675
2,731.93	86.0503	2,731.93	85.601	2,731.93	85.4114	2,731.93	84.7636	2,731.93	84.0563	2,731.93	84.0038	2,731.93	82.962	2,731.93	80.5635	2,731.93	81.9151	2,731.93	77.7479	2,731.93	79.8312	2,731.93	75.1204	2,731.93	76.6195	2,731.93	72.6666	2,731.93	73.4243	2,731.93	70.4561	2,731.93	68.7712	2,731.93	64.8131	2,731.93	68.1557	2,731.93	62.8239	2,731.93	63.9867	2,731.93	52.7726	2,731.93	56.253	2,731.93	58.3179	2,731.93	56.9148	2,731.93	53.9844	2,731.93	62.9147	2,731.93	55.9485	2,731.93	62.6777	2,731.93	58.1186	2,731.93	63.4389	2,731.93	56.0221	2,731.93	61.9659	2,731.93	60.4366	2,731.93	57.6629	2,731.93	51.6764
2,828.61	85.9958	2,828.61	85.8737	2,828.61	85.7985	2,828.61	85.3308	2,828.61	84.5487	2,828.61	83.2999	2,828.61	83.0014	2,828.61	81.44	2,828.61	81.7125	2,828.61	79.3259	2,828.61	80.046	2,828.61	75.3877	2,828.61	76.3979	2,828.61	73.4691	2,828.61	72.4166	2,828.61	71.3769	2,828.61	71.9522	2,828.61	67.4722	2,828.61	69.8541	2,828.61	59.6447	2,828.61	54.7096	2,828.61	51.3504	2,828.61	57.7701	2,828.61	57.1108	2,828.61	58.3318	2,828.61	54.0556	2,828.61	63.1905	2,828.61	57.2116	2,828.61	62.4047	2,828.61	59.0371	2,828.61	63.4143	2,828.61	57.1274	2,828.61	61.6249	2,828.61	61.4429	2,828.61	59.7664	2,828.61	50.0378
2,928.22	86.1705	2,928.22	86.1246	2,928.22	85.6268	2,928.22	85.3326	2,928.22	84.6713	2,928.22	83.2822	2,928.22	83.1297	2,928.22	81.7293	2,928.22	81.4785	2,928.22	79.3186	2,928.22	79.3815	2,928.22	77.4064	2,928.22	77.0529	2,928.22	75.1646	2,928.22	73.5798	2,928.22	69.5247	2,928.22	72.044	2,928.22	64.8007	2,928.22	63.7767	2,928.22	65.1379	2,928.22	55.8673	2,928.22	66.031	2,928.22	66.9736	2,928.22	60.4568	2,928.22	59.9032	2,928.22	61.4003	2,928.22	60.9741	2,928.22	63.036	2,928.22	62.3693	2,928.22	59.2644	2,928.22	62.9353	2,928.22	59.2064	2,928.22	56.5727	2,928.22	63.3761	2,928.22	53.1566	2,928.22	62.52
3,030.76	85.9829	3,030.76	85.742	3,030.76	85.4315	3,030.76	84.5574	3,030.76	84.5182	3,030.76	83.3771	3,030.76	82.7323	3,030.76	81.7698	3,030.76	81.3292	3,030.76	80.0064	3,030.76	78.533	3,030.76	78.6803	3,030.76	76.3689	3,030.76	74.5065	3,030.76	72.4271	3,030.76	73.2631	3,030.76	68.5137	3,030.76	70.7699	3,030.76	56.0802	3,030.76	65.5933	3,030.76	63.2601	3,030.76	63.3655	3,030.76	67.9104	3,030.76	60.462	3,030.76	58.0723	3,030.76	64.7162	3,030.76	61.8639	3,030.76	62.0072	3,030.76	63.1282	3,030.76	63.0508	3,030.76	65.1748	3,030.76	63.5118	3,030.76	59.3466	3,030.76	62.3876	3,030.76	58.8761	3,030.76	62.5448
3,137.7	85.3836	3,137.7	84.8448	3,137.7	84.8082	3,137.7	83.7556	3,137.7	84.1725	3,137.7	82.6406	3,137.7	82.7451	3,137.7	81.5131	3,137.7	81.0803	3,137.7	80.1546	3,137.7	79.1502	3,137.7	78.3085	3,137.7	75.6542	3,137.7	75.978	3,137.7	72.9889	3,137.7	75.7425	3,137.7	66.7611	3,137.7	70.9279	3,137.7	63.9468	3,137.7	66.8016	3,137.7	66.9858	3,137.7	62.2939	3,137.7	64.9682	3,137.7	62.9383	3,137.7	60.9906	3,137.7	63.9038	3,137.7	61.5942	3,137.7	64.561	3,137.7	60.5482	3,137.7	64.8437	3,137.7	64.4804	3,137.7	63.2236	3,137.7	60.5916	3,137.7	63.8509	3,137.7	57.8082	3,137.7	63.8927
3,249.02	85.2643	3,249.02	84.6539	3,249.02	84.615	3,249.02	83.5425	3,249.02	84.103	3,249.02	82.8645	3,249.02	83.3604	3,249.02	82.4457	3,249.02	81.615	3,249.02	81.5194	3,249.02	79.8522	3,249.02	79.5562	3,249.02	77.1077	3,249.02	78.3965	3,249.02	73.4657	3,249.02	74.253	3,249.02	69.1039	3,249.02	67.3473	3,249.02	70.0849	3,249.02	66.8577	3,249.02	66.9264	3,249.02	65.2462	3,249.02	61.0276	3,249.02	65.4505	3,249.02	56.924	3,249.02	64.9368	3,249.02	60.4652	3,249.02	65.9431	3,249.02	59.683	3,249.02	66.7586	3,249.02	65.7598	3,249.02	64.7334	3,249.02	62.5369	3,249.02	64.634	3,249.02	55.4868	3,249.02	61.3656
3,363.28	85.5434	3,363.28	84.5783	3,363.28	85.0668	3,363.28	83.882	3,363.28	83.4465	3,363.28	83.6515	3,363.28	83.3948	3,363.28	83.0589	3,363.28	82.2291	3,363.28	82.7814	3,363.28	80.4733	3,363.28	80.031	3,363.28	78.8016	3,363.28	77.9732	3,363.28	75.5541	3,363.28	72.8617	3,363.28	71.9612	3,363.28	73.1006	3,363.28	73.7005	3,363.28	68.884	3,363.28	67.775	3,363.28	64.436	3,363.28	47.066	3,363.28	64.5971	3,363.28	56.2532	3,363.28	66.113	3,363.28	62.5282	3,363.28	68.0275	3,363.28	61.6111	3,363.28	68.375	3,363.28	65.6538	3,363.28	67.2962	3,363.28	63.7326	3,363.28	67.0745	3,363.28	50.4757	3,363.28	63.7113
3,481.93	84.4118	3,481.93	83.9794	3,481.93	84.7464	3,481.93	83.8762	3,481.93	83.8262	3,481.93	83.6573	3,481.93	82.5495	3,481.93	84.2994	3,481.93	82.7219	3,481.93	82.4577	3,481.93	81.7487	3,481.93	81.6393	3,481.93	80.041	3,481.93	76.4437	3,481.93	77.9019	3,481.93	77.2247	3,481.93	76.2385	3,481.93	74.4119	3,481.93	75.8541	3,481.93	63.9071	3,481.93	68.0981	3,481.93	67.3175	3,481.93	64.2932	3,481.93	64.0456	3,481.93	65.6142	3,481.93	65.7326	3,481.93	61.3553	3,481.93	69.326	3,481.93	63.5703	3,481.93	69.7268	3,481.93	66.0435	3,481.93	68.8457	3,481.93	65.6153	3,481.93	68.0205	3,481.93	43.6503	3,481.93	62.8464
3,604.98	83.7629	3,604.98	82.9837	3,604.98	83.8761	3,604.98	83.1835	3,604.98	84.0039	3,604.98	84.1384	3,604.98	83.2254	3,604.98	84.1643	3,604.98	83.322	3,604.98	83.7225	3,604.98	82.9681	3,604.98	81.4195	3,604.98	80.7389	3,604.98	80.8304	3,604.98	80.4989	3,604.98	77.4805	3,604.98	79.2905	3,604.98	70.4512	3,604.98	74.1492	3,604.98	70.2227	3,604.98	70.7791	3,604.98	67.6978	3,604.98	70.6561	3,604.98	67.4922	3,604.98	67.1686	3,604.98	68.1574	3,604.98	61.9528	3,604.98	70.5556	3,604.98	66.1837	3,604.98	71.297	3,604.98	67.9327	3,604.98	70.6986	3,604.98	67.7285	3,604.98	71.1286	3,604.98	50.4334	3,604.98	67.8553
3,732.42	84.1114	3,732.42	83.0852	3,732.42	84.1582	3,732.42	82.6475	3,732.42	83.7808	3,732.42	84.3223	3,732.42	83.5731	3,732.42	84.0442	3,732.42	83.384	3,732.42	84.0562	3,732.42	82.9543	3,732.42	81.4925	3,732.42	82.0066	3,732.42	80.9966	3,732.42	79.7872	3,732.42	76.3909	3,732.42	77.0518	3,732.42	75.9518	3,732.42	71.4506	3,732.42	70.0284	3,732.42	68.2391	3,732.42	63.5427	3,732.42	71.9236	3,732.42	68.4753	3,732.42	65.7137	3,732.42	66.6932	3,732.42	56.4832	3,732.42	71.0847	3,732.42	69.4253	3,732.42	72.3715	3,732.42	68.7926	3,732.42	72.264	3,732.42	68.292	3,732.42	71.4714	3,732.42	46.174	3,732.42	68.9298
3,864.26	84.1929	3,864.26	82.6584	3,864.26	84.9329	3,864.26	83.019	3,864.26	83.6667	3,864.26	84.0944	3,864.26	83.3615	3,864.26	83.827	3,864.26	83.3591	3,864.26	83.1754	3,864.26	82.726	3,864.26	82.3219	3,864.26	81.6828	3,864.26	78.749	3,864.26	80.6699	3,864.26	76.9821	3,864.26	76.3344	3,864.26	72.8623	3,864.26	68.8015	3,864.26	67.1774	3,864.26	62.8674	3,864.26	68.6343	3,864.26	68.8055	3,864.26	66.1404	3,864.26	58.1002	3,864.26	66.8228	3,864.26	62.8454	3,864.26	71.7237	3,864.26	69.1289	3,864.26	72.6616	3,864.26	66.8333	3,864.26	72.1044	3,864.26	68.3761	3,864.26	69.4565	3,864.26	50.3423	3,864.26	69.7961
4,000.49	85.3529	4,000.49	84.4301	4,000.49	85.6348	4,000.49	84.0338	4,000.49	84.44	4,000.49	82.6919	4,000.49	83.0765	4,000.49	83.6537	4,000.49	82.4521	4,000.49	82.5258	4,000.49	82.6786	4,000.49	82.2496	4,000.49	82.1075	4,000.49	78.8144	4,000.49	80.9173	4,000.49	78.3432	4,000.49	76.3535	4,000.49	72.1615	4,000.49	67.2186	4,000.49	69.3872	4,000.49	60.4271	4,000.49	65.761	4,000.49	55.2233	4,000.49	66.7084	4,000.49	63.6713	4,000.49	67.556	4,000.49	69.2024	4,000.49	70.5058	4,000.49	69.5907	4,000.49	71.3081	4,000.49	67.0301	4,000.49	71.2728	4,000.49	67.0673	4,000.49	69.4768	4,000.49	57.4938	4,000.49	68.7409
4,141.11	86.1891	4,141.11	85.7575	4,141.11	86.5187	4,141.11	84.9167	4,141.11	85.3753	4,141.11	83.7398	4,141.11	82.7927	4,141.11	83.3934	4,141.11	82.109	4,141.11	82.557	4,141.11	82.3031	4,141.11	79.5899	4,141.11	82.179	4,141.11	78.98	4,141.11	80.3929	4,141.11	74.073	4,141.11	71.8631	4,141.11	71.2352	4,141.11	67.7995	4,141.11	66.7256	4,141.11	70.568	4,141.11	59.0971	4,141.11	64.2692	4,141.11	64.7756	4,141.11	63.9729	4,141.11	61.7903	4,141.11	68.3494	4,141.11	69.4743	4,141.11	67.4151	4,141.11	70.4558	4,141.11	67.2673	4,141.11	71.4203	4,141.11	67.605	4,141.11	69.0595	4,141.11	54.4839	4,141.11	64.1186
4,287.6	86.662	4,287.6	86.9132	4,287.6	87.1798	4,287.6	84.8413	4,287.6	85.5808	4,287.6	84.3293	4,287.6	83.4108	4,287.6	82.3834	4,287.6	81.783	4,287.6	81.1863	4,287.6	81.5223	4,287.6	78.6357	4,287.6	81.405	4,287.6	76.0048	4,287.6	76.5145	4,287.6	73.0922	4,287.6	68.0994	4,287.6	71.9927	4,287.6	71.6014	4,287.6	63.6519	4,287.6	72.4083	4,287.6	64.0274	4,287.6	66.457	4,287.6	58.6359	4,287.6	62.206	4,287.6	62.6399	4,287.6	59.6124	4,287.6	66.5754	4,287.6	62.7842	4,287.6	68.1426	4,287.6	64.9956	4,287.6	68.854	4,287.6	66.2582	4,287.6	67.7903	4,287.6	55.5878	4,287.6	64.1252
4,438.48	87.5036	4,438.48	87.2033	4,438.48	87.0522	4,438.48	86.2199	4,438.48	85.7264	4,438.48	83.7521	4,438.48	83.8657	4,438.48	82.7451	4,438.48	82.106	4,438.48	79.3893	4,438.48	81.0468	4,438.48	77.4188	4,438.48	80.1285	4,438.48	72.2857	4,438.48	71.4937	4,438.48	74.4518	4,438.48	71.7496	4,438.48	61.6975	4,438.48	71.424	4,438.48	64.8674	4,438.48	69.8148	4,438.48	58.8599	4,438.48	56.6599	4,438.48	61.6671	4,438.48	55.7215	4,438.48	57.8601	4,438.48	57.7016	4,438.48	61.5852	4,438.48	62.9373	4,438.48	67.7577	4,438.48	60.6186	4,438.48	66.8968	4,438.48	63.8347	4,438.48	63.9448	4,438.48	57.4161	4,438.48	63.9731
4,595.21	86.5427	4,595.21	86.5915	4,595.21	86.53	4,595.21	85.0429	4,595.21	86.0657	4,595.21	83.8236	4,595.21	83.1658	4,595.21	81.2563	4,595.21	81.9359	4,595.21	79.2685	4,595.21	79.6717	4,595.21	75.4443	4,595.21	76.4068	4,595.21	76.1844	4,595.21	70.8332	4,595.21	66.8748	4,595.21	72.7098	4,595.21	71.4981	4,595.21	69.0531	4,595.21	63.4269	4,595.21	61.5097	4,595.21	63.6419	4,595.21	58.9739	4,595.21	60.7992	4,595.21	59.7526	4,595.21	57.475	4,595.21	64.3517	4,595.21	63.8946	4,595.21	61.0992	4,595.21	66.1133	4,595.21	55.7484	4,595.21	64.9644	4,595.21	58.272	4,595.21	63.7259	4,595.21	57.7646	4,595.21	63.3072
4,756.35	86.1409	4,756.35	85.8963	4,756.35	85.1196	4,756.35	84.0559	4,756.35	84.6025	4,756.35	82.0138	4,756.35	82.6257	4,756.35	79.9997	4,756.35	80.8671	4,756.35	77.9001	4,756.35	77.5823	4,756.35	76.6313	4,756.35	71.8439	4,756.35	73.1476	4,756.35	71.5437	4,756.35	73.4322	4,756.35	71.9902	4,756.35	66.2796	4,756.35	52.6778	4,756.35	62.0582	4,756.35	57.7795	4,756.35	63.0628	4,756.35	63.1286	4,756.35	58.4357	4,756.35	58.5976	4,756.35	63.7362	4,756.35	62.469	4,756.35	64.3848	4,756.35	55.3892	4,756.35	63.9796	4,756.35	60.3658	4,756.35	63.9277	4,756.35	60.0155	4,756.35	63.5689	4,756.35	58.6507	4,756.35	62.9295
4,924.8	86.3024	4,924.8	85.7119	4,924.8	85.361	4,924.8	83.5527	4,924.8	84.0381	4,924.8	81.052	4,924.8	81.7685	4,924.8	79.1093	4,924.8	80.4366	4,924.8	77.9202	4,924.8	76.6501	4,924.8	76.6542	4,924.8	72.4209	4,924.8	74.171	4,924.8	72.8904	4,924.8	70.5284	4,924.8	68.3988	4,924.8	67.5212	4,924.8	58.1323	4,924.8	62.0077	4,924.8	58.1276	4,924.8	57.9661	4,924.8	59.8387	4,924.8	59.3692	4,924.8	45.0979	4,924.8	62.3824	4,924.8	59.202	4,924.8	63.5745	4,924.8	59.6122	4,924.8	64.9323	4,924.8	63.1304	4,924.8	65.5618	4,924.8	58.8192	4,924.8	62.6406	4,924.8	60.3544	4,924.8	59.9412
5,097.66	86.7084	5,097.66	85.7241	5,097.66	84.7194	5,097.66	83.5547	5,097.66	83.2347	5,097.66	81.1545	5,097.66	81.0414	5,097.66	79.3218	5,097.66	78.7226	5,097.66	77.4469	5,097.66	76.2235	5,097.66	74.7122	5,097.66	72.9165	5,097.66	72.8553	5,097.66	73.4603	5,097.66	68.2583	5,097.66	67.7893	5,097.66	65.8814	5,097.66	64.15	5,097.66	59.6718	5,097.66	51.9706	5,097.66	58.3355	5,097.66	58.3858	5,097.66	53.6818	5,097.66	56.169	5,097.66	58.7592	5,097.66	49.3452	5,097.66	60.6325	5,097.66	58.6929	5,097.66	62.3536	5,097.66	62.9095	5,097.66	63.2589	5,097.66	57.233	5,097.66	61.969	5,097.66	57.4059	5,097.66	55.4454
5,277.83	85.0747	5,277.83	84.242	5,277.83	84.1694	5,277.83	82.429	5,277.83	81.8076	5,277.83	79.8037	5,277.83	79.4849	5,277.83	78.0344	5,277.83	76.7456	5,277.83	75.2337	5,277.83	74.62	5,277.83	73.0978	5,277.83	73.1896	5,277.83	69.4116	5,277.83	71.5077	5,277.83	68.0964	5,277.83	66.2181	5,277.83	62.0176	5,277.83	62.4636	5,277.83	59.4614	5,277.83	52.3795	5,277.83	53.1199	5,277.83	58.1014	5,277.83	46.5643	5,277.83	55.9954	5,277.83	58.0776	5,277.83	51.1933	5,277.83	58.708	5,277.83	60.9659	5,277.83	61.8374	5,277.83	61.5769	5,277.83	61.941	5,277.83	55.0458	5,277.83	61.5628	5,277.83	54.596	5,277.83	54.118
5,463.87	84.3427	5,463.87	84.0749	5,463.87	83.396	5,463.87	81.5085	5,463.87	80.8469	5,463.87	78.329	5,463.87	77.6684	5,463.87	75.8215	5,463.87	75.19	5,463.87	73.7059	5,463.87	74.1604	5,463.87	71.5293	5,463.87	73.5812	5,463.87	70.1467	5,463.87	69.6532	5,463.87	66.3424	5,463.87	65.1189	5,463.87	63.0371	5,463.87	59.9426	5,463.87	57.6272	5,463.87	56.8536	5,463.87	52.5674	5,463.87	62.1036	5,463.87	54.385	5,463.87	57.4003	5,463.87	56.4784	5,463.87	47.5858	5,463.87	54.7597	5,463.87	57.7977	5,463.87	60.3282	5,463.87	58.8042	5,463.87	59.7884	5,463.87	55.0698	5,463.87	59.4354	5,463.87	52.4612	5,463.87	50.8962
5,657.23	84.5964	5,657.23	83.8546	5,657.23	83.2964	5,657.23	80.7428	5,657.23	80.0808	5,657.23	76.3853	5,657.23	76.3633	5,657.23	73.7049	5,657.23	72.1996	5,657.23	71.9798	5,657.23	71.7814	5,657.23	71.8636	5,657.23	71.8743	5,657.23	67.7083	5,657.23	68.4462	5,657.23	66.468	5,657.23	66.8265	5,657.23	61.0492	5,657.23	63.8874	5,657.23	57.1038	5,657.23	60.8516	5,657.23	52.2606	5,657.23	60.3298	5,657.23	52.3078	5,657.23	54.1187	5,657.23	55.6805	5,657.23	52.7136	5,657.23	53.9524	5,657.23	51.7455	5,657.23	60.1403	5,657.23	58.7188	5,657.23	59.9119	5,657.23	51.9618	5,657.23	57.9908	5,657.23	56.5988	5,657.23	50.9807
5,856.45	85.5344	5,856.45	84.8209	5,856.45	83.5892	5,856.45	79.8686	5,856.45	80.0299	5,856.45	73.8636	5,856.45	76.4067	5,856.45	72.3276	5,856.45	70.3766	5,856.45	72.0164	5,856.45	70.1066	5,856.45	69.9512	5,856.45	70.6723	5,856.45	68.1678	5,856.45	68.3395	5,856.45	62.9204	5,856.45	66.5746	5,856.45	61.6409	5,856.45	65.1301	5,856.45	57.9454	5,856.45	61.1944	5,856.45	47.3507	5,856.45	59.2477	5,856.45	55.0016	5,856.45	50.8646	5,856.45	54.6296	5,856.45	52.385	5,856.45	52.6116	5,856.45	56.8212	5,856.45	59.9599	5,856.45	52.9312	5,856.45	60.1092	5,856.45	50.7302	5,856.45	56.8667	5,856.45	54.0199	5,856.45	49.1178
6,062.99	86.5236	6,062.99	85.3458	6,062.99	84.9042	6,062.99	80.4104	6,062.99	80.7988	6,062.99	74.743	6,062.99	76.8314	6,062.99	72.7391	6,062.99	72.8137	6,062.99	71.1548	6,062.99	69.5475	6,062.99	69.2096	6,062.99	69.7704	6,062.99	67.2041	6,062.99	65.98	6,062.99	65.99	6,062.99	63.9743	6,062.99	62.4893	6,062.99	64.8364	6,062.99	57.591	6,062.99	60.7622	6,062.99	51.6491	6,062.99	60.7018	6,062.99	50.3078	6,062.99	57.0689	6,062.99	52.4488	6,062.99	45.9808	6,062.99	54.6893	6,062.99	51.1391	6,062.99	58.6983	6,062.99	56.2724	6,062.99	59.8694	6,062.99	45.5848	6,062.99	57.3462	6,062.99	54.0213	6,062.99	45.9428
6,276.86	87.5585	6,276.86	85.9547	6,276.86	85.6752	6,276.86	81.4498	6,276.86	81.049	6,276.86	77.0466	6,276.86	76.4343	6,276.86	73.6122	6,276.86	74.8966	6,276.86	69.6213	6,276.86	72.0862	6,276.86	70.5775	6,276.86	70.3684	6,276.86	68.8587	6,276.86	65.5326	6,276.86	65.749	6,276.86	64.3147	6,276.86	61.4098	6,276.86	64.4946	6,276.86	59.2474	6,276.86	62.4275	6,276.86	47.0959	6,276.86	64.2236	6,276.86	50.6604	6,276.86	59.7633	6,276.86	53.6572	6,276.86	47.2445	6,276.86	52.6622	6,276.86	52.3049	6,276.86	58.3893	6,276.86	51.5303	6,276.86	59.6532	6,276.86	42.4766	6,276.86	56.5609	6,276.86	52.5472	6,276.86	42.5022
6,498.05	86.4175	6,498.05	85.3527	6,498.05	85.0532	6,498.05	81.9761	6,498.05	81.6606	6,498.05	78.5938	6,498.05	76.9161	6,498.05	74.7033	6,498.05	75.4035	6,498.05	72.5301	6,498.05	72.7375	6,498.05	70.7083	6,498.05	69.9032	6,498.05	68.8237	6,498.05	66.8973	6,498.05	65.8147	6,498.05	66.0703	6,498.05	61.888	6,498.05	62.7871	6,498.05	55.8615	6,498.05	58.6748	6,498.05	46.2546	6,498.05	61.9941	6,498.05	51.7654	6,498.05	57.4419	6,498.05	53.8815	6,498.05	43.6669	6,498.05	52.8237	6,498.05	54.73	6,498.05	56.8578	6,498.05	52.1747	6,498.05	57.6088	6,498.05	35.6319	6,498.05	52.2679	6,498.05	48.4093	6,498.05	38.5907
6,726.56	86.1758	6,726.56	85.4529	6,726.56	84.9126	6,726.56	82.5588	6,726.56	81.814	6,726.56	79.0545	6,726.56	77.5233	6,726.56	75.655	6,726.56	75.4029	6,726.56	72.9319	6,726.56	73.2374	6,726.56	71.1778	6,726.56	69.1053	6,726.56	68.0803	6,726.56	67.5769	6,726.56	63.0332	6,726.56	64.8493	6,726.56	60.8017	6,726.56	59.4732	6,726.56	54.3162	6,726.56	59.4513	6,726.56	46.6579	6,726.56	62.7037	6,726.56	48.6407	6,726.56	55.5268	6,726.56	49.7259	6,726.56	48.4606	6,726.56	47.3572	6,726.56	44.1939	6,726.56	55.1118	6,726.56	51.3326	6,726.56	55.4533	6,726.56	36.0142	6,726.56	53.1758	6,726.56	47.4936	6,726.56	42.2692
6,963.87	87.1955	6,963.87	86.0447	6,963.87	85.3818	6,963.87	82.9476	6,963.87	82.5836	6,963.87	79.708	6,963.87	79.3274	6,963.87	77.035	6,963.87	75.8683	6,963.87	74.25	6,963.87	74.5858	6,963.87	71.2585	6,963.87	69.0882	6,963.87	67.7643	6,963.87	69.695	6,963.87	63.915	6,963.87	61.4729	6,963.87	58.6587	6,963.87	52.8981	6,963.87	55.4779	6,963.87	63.546	6,963.87	46.4965	6,963.87	62.9517	6,963.87	49.1892	6,963.87	55.2686	6,963.87	51.9986	6,963.87	47.4891	6,963.87	50.8373	6,963.87	53.6851	6,963.87	54.7245	6,963.87	45.1122	6,963.87	55.274	6,963.87	39.9626	6,963.87	52.8189	6,963.87	49.5545	6,963.87	37.1573
7,209.96	87.3112	7,209.96	85.9972	7,209.96	85.4358	7,209.96	83.5937	7,209.96	82.9741	7,209.96	80.7954	7,209.96	80.7237	7,209.96	78.2486	7,209.96	77.2673	7,209.96	75.4208	7,209.96	74.4999	7,209.96	71.9084	7,209.96	71.4084	7,209.96	68.333	7,209.96	69.0705	7,209.96	63.1533	7,209.96	58.2387	7,209.96	60.3934	7,209.96	54.5156	7,209.96	55.6118	7,209.96	61.8816	7,209.96	42.4137	7,209.96	62.7658	7,209.96	48.4877	7,209.96	56.6935	7,209.96	46.0469	7,209.96	44.5216	7,209.96	49.177	7,209.96	48.6393	7,209.96	53.7708	7,209.96	46.4392	7,209.96	55.5624	7,209.96	45.9268	7,209.96	52.366	7,209.96	44.6572	7,209.96	33.7583
7,464.84	87.0679	7,464.84	86.0772	7,464.84	85.5731	7,464.84	83.9252	7,464.84	83.0787	7,464.84	81.6226	7,464.84	81.676	7,464.84	79.3672	7,464.84	79.2973	7,464.84	76.405	7,464.84	74.8333	7,464.84	72.8335	7,464.84	73.7601	7,464.84	69.1955	7,464.84	64.561	7,464.84	63.5251	7,464.84	61.5163	7,464.84	57.6726	7,464.84	43.5566	7,464.84	52.4208	7,464.84	60.5838	7,464.84	43.4368	7,464.84	64.6589	7,464.84	49.2337	7,464.84	57.3885	7,464.84	44.5582	7,464.84	49.7178	7,464.84	46.0218	7,464.84	46.3436	7,464.84	52.5924	7,464.84	46.7445	7,464.84	56.7648	7,464.84	42.0625	7,464.84	55.2009	7,464.84	48.3787	7,464.84	41.9039
7,727.05	86.9669	7,727.05	85.5805	7,727.05	85.6035	7,727.05	83.9664	7,727.05	82.9854	7,727.05	81.9276	7,727.05	82.0836	7,727.05	80.0209	7,727.05	80.3741	7,727.05	77.3674	7,727.05	75.3763	7,727.05	73.3667	7,727.05	73.4649	7,727.05	68.0221	7,727.05	57.3519	7,727.05	62.489	7,727.05	66.5087	7,727.05	61.0566	7,727.05	56.0211	7,727.05	57.3104	7,727.05	55.3617	7,727.05	31.8556	7,727.05	64.6958	7,727.05	47.6437	7,727.05	59.3389	7,727.05	52.0844	7,727.05	50.2141	7,727.05	49.198	7,727.05	46.2457	7,727.05	53.1722	7,727.05	46.7755	7,727.05	55.2138	7,727.05	29.8901	7,727.05	56.8707	7,727.05	50.0026	7,727.05	36.1371
7,999.51	86.2096	7,999.51	84.9758	7,999.51	85.3357	7,999.51	83.5026	7,999.51	83.2352	7,999.51	81.7482	7,999.51	81.941	7,999.51	79.7814	7,999.51	79.4768	7,999.51	77.0373	7,999.51	75.3589	7,999.51	71.6452	7,999.51	70.392	7,999.51	67.1398	7,999.51	68.3113	7,999.51	64.1715	7,999.51	66.1911	7,999.51	62.0019	7,999.51	62.9074	7,999.51	58.1201	7,999.51	54.0562	7,999.51	48.9159	7,999.51	62.5564	7,999.51	50.3955	7,999.51	59.5512	7,999.51	55.189	7,999.51	49.9797	7,999.51	51.9485	7,999.51	51.8811	7,999.51	53.9427	7,999.51	51.5162	7,999.51	58.8752	7,999.51	48.9761	7,999.51	56.1654	7,999.51	46.6487	7,999.51	37.1757
8,282.23	85.2119	8,282.23	84.8522	8,282.23	84.774	8,282.23	84.1971	8,282.23	85.0408	8,282.23	83.0491	8,282.23	83.14	8,282.23	78.5016	8,282.23	78.1264	8,282.23	71.9926	8,282.23	74.1386	8,282.23	66.3206	8,282.23	66.1945	8,282.23	66.242	8,282.23	71.6492	8,282.23	63.8256	8,282.23	64.1496	8,282.23	61.9057	8,282.23	61.7683	8,282.23	55.1196	8,282.23	60.2979	8,282.23	54.735	8,282.23	66.5825	8,282.23	50.5034	8,282.23	62.5293	8,282.23	55.6831	8,282.23	54.0216	8,282.23	54.8219	8,282.23	49.3045	8,282.23	54.2755	8,282.23	50.8523	8,282.23	57.8654	8,282.23	49.2915	8,282.23	55.611	8,282.23	46.3882	8,282.23	46.329
8,573.73	80.8224	8,573.73	81.7572	8,573.73	83.2956	8,573.73	84.9904	8,573.73	85.5062	8,573.73	84.4045	8,573.73	84.029	8,573.73	79.8972	8,573.73	78.392	8,573.73	71.0683	8,573.73	74.6314	8,573.73	68.8475	8,573.73	70.1039	8,573.73	67.2767	8,573.73	71.821	8,573.73	63.0146	8,573.73	63.8867	8,573.73	59.7431	8,573.73	59.7801	8,573.73	53.3299	8,573.73	62.8606	8,573.73	51.6165	8,573.73	68.3804	8,573.73	44.8246	8,573.73	61.2941	8,573.73	54.0993	8,573.73	48.7616	8,573.73	51.7713	8,573.73	39.1734	8,573.73	50.2311	8,573.73	49.7886	8,573.73	55.0715	8,573.73	48.5404	8,573.73	56.7483	8,573.73	44.1424	8,573.73	45.1008
8,876.95	76.9524	8,876.95	80.0919	8,876.95	83.6976	8,876.95	84.2479	8,876.95	85.436	8,876.95	84.1054	8,876.95	82.9572	8,876.95	79.4111	8,876.95	77.7529	8,876.95	74.9535	8,876.95	71.2539	8,876.95	72.8751	8,876.95	71.6909	8,876.95	69.3533	8,876.95	68.213	8,876.95	65.4607	8,876.95	65.6446	8,876.95	60.7797	8,876.95	60.7501	8,876.95	53.851	8,876.95	64.0736	8,876.95	43.5553	8,876.95	68.0032	8,876.95	29.6352	8,876.95	59.365	8,876.95	45.2622	8,876.95	50.5054	8,876.95	50.6365	8,876.95	41.6269	8,876.95	39.3248	8,876.95	30.2111	8,876.95	54.2923	8,876.95	39.8605	8,876.95	54.1365	8,876.95	39.9915	8,876.95	35.3608
9,188.96	83.1115	9,188.96	84.2488	9,188.96	83.9398	9,188.96	83.6919	9,188.96	84.693	9,188.96	82.1747	9,188.96	82.906	9,188.96	79.0866	9,188.96	78.4104	9,188.96	76.8612	9,188.96	71.22	9,188.96	75.7413	9,188.96	74.2923	9,188.96	72.6963	9,188.96	65.1366	9,188.96	66.2753	9,188.96	69.1777	9,188.96	62.8213	9,188.96	65.656	9,188.96	59.4419	9,188.96	66.2269	9,188.96	52.3954	9,188.96	68.2264	9,188.96	49.5289	9,188.96	58.8978	9,188.96	53.5696	9,188.96	52.3635	9,188.96	52.2071	9,188.96	44.8532	9,188.96	51.6764	9,188.96	50.2519	9,188.96	55.4026	9,188.96	50.6875	9,188.96	56.4621	9,188.96	52.2192	9,188.96	38.9379
9,514.16	86.2107	9,514.16	86.7354	9,514.16	85.8992	9,514.16	84.4648	9,514.16	84.5401	9,514.16	79.5841	9,514.16	79.8332	9,514.16	72.0805	9,514.16	70.745	9,514.16	73.1687	9,514.16	75.6981	9,514.16	74.2251	9,514.16	74.0731	9,514.16	71.6931	9,514.16	69.9704	9,514.16	65.8843	9,514.16	66.3747	9,514.16	63.0938	9,514.16	65.3851	9,514.16	55.7795	9,514.16	61.4561	9,514.16	52.7161	9,514.16	60.0683	9,514.16	48.512	9,514.16	57.0456	9,514.16	53.5938	9,514.16	51.1022	9,514.16	53.3534	9,514.16	42.3791	9,514.16	51.9991	9,514.16	48.9639	9,514.16	56.4399	9,514.16	52.058	9,514.16	53.0151	9,514.16	48.2853	9,514.16	45.0319
9,849.61	86.0239	9,849.61	86.8688	9,849.61	85.6829	9,849.61	85.2264	9,849.61	83.9734	9,849.61	78.9544	9,849.61	77.843	9,849.61	74.0112	9,849.61	76.0062	9,849.61	72.376	9,849.61	76.0388	9,849.61	69.6275	9,849.61	68.483	9,849.61	65.5537	9,849.61	67.6234	9,849.61	61.3877	9,849.61	63.213	9,849.61	58.2148	9,849.61	62.9339	9,849.61	53.4968	9,849.61	64.2747	9,849.61	50.8805	9,849.61	65.3426	9,849.61	45.0897	9,849.61	60.332	9,849.61	52.1461	9,849.61	51.0749	9,849.61	44.1047	9,849.61	28.4492	9,849.61	43.5976	9,849.61	46.1986	9,849.61	50.3014	9,849.61	49.13	9,849.61	48.7869	9,849.61	45.006	9,849.61	39.5798
10,196.8	84.2343	10,196.8	84.5197	10,196.8	84.3256	10,196.8	82.9984	10,196.8	83.3756	10,196.8	78.9051	10,196.8	79.3303	10,196.8	78.0155	10,196.8	78.9812	10,196.8	76.7702	10,196.8	76.9632	10,196.8	72.1533	10,196.8	71.713	10,196.8	68.9985	10,196.8	69.5739	10,196.8	64.0432	10,196.8	66.0765	10,196.8	59.7798	10,196.8	64.1267	10,196.8	55.9315	10,196.8	66.842	10,196.8	47.6082	10,196.8	68.3374	10,196.8	33.256	10,196.8	62.3031	10,196.8	49.523	10,196.8	54.2099	10,196.8	38.1058	10,196.8	41.2016	10,196.8	33.2196	10,196.8	32.7723	10,196.8	47.961	10,196.8	49.0179	10,196.8	46.4532	10,196.8	49.2522	10,196.8	14.6717
10,555.7	84.4264	10,555.7	84.3108	10,555.7	84.1817	10,555.7	82.3701	10,555.7	82.2859	10,555.7	78.9955	10,555.7	78.1622	10,555.7	79.0411	10,555.7	78.0281	10,555.7	77.1943	10,555.7	75.1251	10,555.7	73.4974	10,555.7	72.5444	10,555.7	69.6933	10,555.7	68.3921	10,555.7	64.999	10,555.7	63.1797	10,555.7	60.4803	10,555.7	64.8125	10,555.7	56.642	10,555.7	66.5553	10,555.7	52.9007	10,555.7	68.6049	10,555.7	40.9125	10,555.7	63.3355	10,555.7	44.4389	10,555.7	55.4146	10,555.7	41.934	10,555.7	42.353	10,555.7	40.5132	10,555.7	37.9419	10,555.7	53.0416	10,555.7	49.865	10,555.7	51.9137	10,555.7	51.1364	10,555.7	37.5937
10,927.7	84.0552	10,927.7	83.8951	10,927.7	84.3505	10,927.7	82.415	10,927.7	81.745	10,927.7	79.6493	10,927.7	77.579	10,927.7	79.4483	10,927.7	77.7793	10,927.7	76.6533	10,927.7	74.6009	10,927.7	73.0693	10,927.7	73.1533	10,927.7	69.3587	10,927.7	64.1177	10,927.7	65.8603	10,927.7	65.4109	10,927.7	60.2639	10,927.7	65.2016	10,927.7	57.2453	10,927.7	68.5363	10,927.7	54.9319	10,927.7	70.2671	10,927.7	46.4426	10,927.7	63.7448	10,927.7	41.0034	10,927.7	55.6524	10,927.7	37.1877	10,927.7	52.0064	10,927.7	37.1654	10,927.7	36.3417	10,927.7	50.8588	10,927.7	42.117	10,927.7	45.9301	10,927.7	44.6114	10,927.7	43.6776
11,313	83.9331	11,313	83.8192	11,313	84.1943	11,313	81.8568	11,313	81.1743	11,313	80.5577	11,313	79.785	11,313	78.5668	11,313	78.4958	11,313	75.4966	11,313	75.0063	11,313	71.2538	11,313	72.1725	11,313	68.2416	11,313	68.6345	11,313	64.8481	11,313	67.4476	11,313	61.2114	11,313	67.7674	11,313	55.291	11,313	69.5004	11,313	56.0547	11,313	70.9551	11,313	45.4611	11,313	64.286	11,313	40.9542	11,313	54.3188	11,313	41.877	11,313	54.8888	11,313	22.7251	11,313	46.2248	11,313	44.4978	11,313	47.9272	11,313	44.7809	11,313	48.2632	11,313	31.1246
11,712.9	84.4788	11,712.9	83.1276	11,712.9	83.6819	11,712.9	80.6288	11,712.9	80.2695	11,712.9	81.2633	11,712.9	81.1703	11,712.9	77.6863	11,712.9	78.1184	11,712.9	72.8889	11,712.9	74.8741	11,712.9	69.8054	11,712.9	69.2516	11,712.9	66.3105	11,712.9	70.5639	11,712.9	65.7906	11,712.9	65.0835	11,712.9	59.5615	11,712.9	66.5921	11,712.9	53.3717	11,712.9	70.6274	11,712.9	55.488	11,712.9	71.3026	11,712.9	40.7399	11,712.9	65.4751	11,712.9	31.5375	11,712.9	57.6518	11,712.9	46.1104	11,712.9	41.2851	11,712.9	37.9671	11,712.9	37.9536	11,712.9	42.0555	11,712.9	49.3018	11,712.9	39.905	11,712.9	47.8286	11,712.9	34.3575
12,126	85.2498	12,126	82.5584	12,126	82.862	12,126	79.2975	12,126	80.3923	12,126	80.6223	12,126	81.3793	12,126	76.2936	12,126	77.2321	12,126	71.558	12,126	73.5838	12,126	70.4521	12,126	72.0777	12,126	66.635	12,126	69.9649	12,126	63.2794	12,126	62.788	12,126	55.3838	12,126	66.4722	12,126	44.8268	12,126	69.0801	12,126	54.5695	12,126	70.302	12,126	35.6689	12,126	64.4958	12,126	40.07	12,126	54.59	12,126	44.6528	12,126	50.1936	12,126	39.156	12,126	43.3575	12,126	42.1578	12,126	49.0624	12,126	41.9758	12,126	48.7943	12,126	35.8698
12,553.7	86.2817	12,553.7	83.3186	12,553.7	82.611	12,553.7	79.2772	12,553.7	80.3331	12,553.7	79.6336	12,553.7	80.7005	12,553.7	75.6302	12,553.7	76.1036	12,553.7	72.6853	12,553.7	73.4122	12,553.7	71.7878	12,553.7	70.9589	12,553.7	65.6951	12,553.7	64.1091	12,553.7	60.0647	12,553.7	61.276	12,553.7	54.0655	12,553.7	64.7563	12,553.7	42.6865	12,553.7	68.2399	12,553.7	51.9623	12,553.7	70.5024	12,553.7	33.3464	12,553.7	64.3441	12,553.7	40.3782	12,553.7	54.5085	12,553.7	43.349	12,553.7	44.4221	12,553.7	38.5854	12,553.7	44.5192	12,553.7	32.049	12,553.7	36.7638	12,553.7	33.8443	12,553.7	37.088	12,553.7	26.1951
12,996.1	86.5277	12,996.1	83.6958	12,996.1	81.087	12,996.1	79.9697	12,996.1	79.687	12,996.1	79.6471	12,996.1	78.8934	12,996.1	76.6942	12,996.1	75.7963	12,996.1	74.5307	12,996.1	74.1	12,996.1	71.0521	12,996.1	67.9086	12,996.1	60.4381	12,996.1	63.2738	12,996.1	57.3178	12,996.1	59.2709	12,996.1	53.7694	12,996.1	64.7979	12,996.1	43.9903	12,996.1	69.671	12,996.1	50.2176	12,996.1	71.0396	12,996.1	24.7145	12,996.1	64.5859	12,996.1	36.9064	12,996.1	54.4596	12,996.1	44.0242	12,996.1	31.2768	12,996.1	39.8727	12,996.1	31.4863	12,996.1	39.6159	12,996.1	38.4842	12,996.1	30.6182	12,996.1	30.1351	12,996.1	28.6819
13,454.6	85.7126	13,454.6	82.6983	13,454.6	80.8479	13,454.6	80.9665	13,454.6	80.9828	13,454.6	79.1062	13,454.6	79.1191	13,454.6	77.2594	13,454.6	77.0951	13,454.6	75.3624	13,454.6	74.1946	13,454.6	66.9577	13,454.6	66.5217	13,454.6	62.9977	13,454.6	63.5538	13,454.6	61.3298	13,454.6	60.9848	13,454.6	57.6289	13,454.6	64.3658	13,454.6	43.8601	13,454.6	70.6233	13,454.6	54.9884	13,454.6	71.2975	13,454.6	32.0784	13,454.6	65.143	13,454.6	41.5943	13,454.6	52.1146	13,454.6	43.9029	13,454.6	39.2983	13,454.6	19.2947	13,454.6	43.6307	13,454.6	39.9779	13,454.6	33.4717	13,454.6	36.1673	13,454.6	35.098	13,454.6	38.82
13,929.2	84.6077	13,929.2	82.4562	13,929.2	82.2244	13,929.2	82.4438	13,929.2	82.8373	13,929.2	80.6934	13,929.2	79.9822	13,929.2	77.9711	13,929.2	76.2547	13,929.2	73.471	13,929.2	73.6422	13,929.2	68.9338	13,929.2	66.0044	13,929.2	68.1209	13,929.2	66.3905	13,929.2	63.5842	13,929.2	62.678	13,929.2	58.602	13,929.2	66.6693	13,929.2	44.9915	13,929.2	71.2321	13,929.2	54.4145	13,929.2	72.379	13,929.2	42.3037	13,929.2	65.9077	13,929.2	46.8304	13,929.2	55.2668	13,929.2	49.3155	13,929.2	36.0956	13,929.2	43.1753	13,929.2	31.1492	13,929.2	42.6541	13,929.2	40.8955	13,929.2	37.0642	13,929.2	39.9921	13,929.2	34.3604
14,419.9	81.7001	14,419.9	81.4813	14,419.9	82.1626	14,419.9	82.7339	14,419.9	82.9681	14,419.9	81.1252	14,419.9	79.0897	14,419.9	78.2501	14,419.9	78.1921	14,419.9	72.0123	14,419.9	73.2725	14,419.9	73.1676	14,419.9	70.5529	14,419.9	68.5828	14,419.9	66.6508	14,419.9	62.7076	14,419.9	62.4365	14,419.9	59.0313	14,419.9	67.4561	14,419.9	48.5814	14,419.9	71.465	14,419.9	54.6703	14,419.9	72.9874	14,419.9	42.3591	14,419.9	67.145	14,419.9	47.6831	14,419.9	52.3145	14,419.9	51.6059	14,419.9	42.6287	14,419.9	39.6465	14,419.9	38.0008	14,419.9	44.1029	14,419.9	36.4732	14,419.9	37.2666	14,419.9	39.6848	14,419.9	35.66
14,928.2	78.5635	14,928.2	80.611	14,928.2	82.5351	14,928.2	82.5051	14,928.2	82.0746	14,928.2	80.182	14,928.2	80.2063	14,928.2	77.8948	14,928.2	77.8215	14,928.2	72.8975	14,928.2	73.8729	14,928.2	72.1291	14,928.2	72.3102	14,928.2	67.0941	14,928.2	64.6811	14,928.2	61.4802	14,928.2	62.18	14,928.2	56.6984	14,928.2	65.0338	14,928.2	48.4142	14,928.2	71.8742	14,928.2	51.6188	14,928.2	73.1081	14,928.2	45.6506	14,928.2	67.0464	14,928.2	47.4097	14,928.2	52.4012	14,928.2	49.3415	14,928.2	38.0719	14,928.2	43.6164	14,928.2	33.5028	14,928.2	39.3573	14,928.2	23.4403	14,928.2	39.8572	14,928.2	38.1166	14,928.2	43.8422
15,455.6	78.2455	15,455.6	81.5346	15,455.6	82.5424	15,455.6	81.5683	15,455.6	80.6521	15,455.6	80.8136	15,455.6	80.6312	15,455.6	78.0585	15,455.6	76.6443	15,455.6	74.8882	15,455.6	74.806	15,455.6	70.6547	15,455.6	71.1824	15,455.6	67.0739	15,455.6	64.841	15,455.6	60.086	15,455.6	54.5354	15,455.6	55.4257	15,455.6	65.7481	15,455.6	44.5956	15,455.6	72.1189	15,455.6	49.7235	15,455.6	73.8225	15,455.6	46.3367	15,455.6	68.3479	15,455.6	43.7638	15,455.6	52.5004	15,455.6	47.0052	15,455.6	35.738	15,455.6	44.9529	15,455.6	41.078	15,455.6	43.9984	15,455.6	31.1586	15,455.6	35.3053	15,455.6	44.9221	15,455.6	42.2734
16,000.5	76.6612	16,000.5	83.7652	16,000.5	81.6406	16,000.5	82.9005	16,000.5	81.4217	16,000.5	83.0088	16,000.5	82.0398	16,000.5	79.4376	16,000.5	79.2263	16,000.5	77.2644	16,000.5	76.4178	16,000.5	73.4275	16,000.5	72.1487	16,000.5	65.6461	16,000.5	65.093	16,000.5	59.7949	16,000.5	60.4185	16,000.5	55.4593	16,000.5	66.9865	16,000.5	48.0305	16,000.5	73.2302	16,000.5	47.6058	16,000.5	74.9089	16,000.5	49.3441	16,000.5	69.2848	16,000.5	50.2833	16,000.5	54.2502	16,000.5	48.1664	16,000.5	47.5944	16,000.5	41.8861	16,000.5	44.9565	16,000.5	39.2435	16,000.5	32.4945	16,000.5	22.1423	16,000.5	46.5574	16,000.5	42.7858
16,564.5	81.595	16,564.5	83.2796	16,564.5	83.404	16,564.5	83.77	16,564.5	83.02	16,564.5	84.0758	16,564.5	82.722	16,564.5	80.3204	16,564.5	79.3417	16,564.5	75.644	16,564.5	77.4439	16,564.5	73.0179	16,564.5	72.936	16,564.5	68.0873	16,564.5	64.7733	16,564.5	62.4997	16,564.5	60.4002	16,564.5	57.4816	16,564.5	65.8176	16,564.5	48.8137	16,564.5	73.8159	16,564.5	48.5279	16,564.5	75.096	16,564.5	51.4932	16,564.5	69.4215	16,564.5	46.1996	16,564.5	54.9983	16,564.5	47.8819	16,564.5	30.5971	16,564.5	50.293	16,564.5	44.0523	16,564.5	44.2554	16,564.5	42.0147	16,564.5	38.5826	16,564.5	42.1952	16,564.5	33.0304
17,148.9	84.3842	17,148.9	84.0331	17,148.9	82.7722	17,148.9	82.7614	17,148.9	82.6214	17,148.9	82.5968	17,148.9	81.873	17,148.9	79.8045	17,148.9	79.513	17,148.9	74.6392	17,148.9	72.0579	17,148.9	67.9186	17,148.9	69.4125	17,148.9	67.0117	17,148.9	65.8984	17,148.9	58.6713	17,148.9	54.3999	17,148.9	54.7959	17,148.9	66.0802	17,148.9	40.0465	17,148.9	72.4403	17,148.9	46.3442	17,148.9	74.2549	17,148.9	51.0869	17,148.9	68.6391	17,148.9	47.9372	17,148.9	52.5185	17,148.9	41.6871	17,148.9	39.3387	17,148.9	46.4115	17,148.9	43.0443	17,148.9	44.5074	17,148.9	47.0149	17,148.9	42.1533	17,148.9	45.5972	17,148.9	40.4192
17,752.4	86.4885	17,752.4	85.5127	17,752.4	83.8277	17,752.4	83.6049	17,752.4	83.9514	17,752.4	81.87	17,752.4	81.2753	17,752.4	78.1472	17,752.4	77.3282	17,752.4	71.3935	17,752.4	72.944	17,752.4	67.4931	17,752.4	68.0201	17,752.4	61.762	17,752.4	63.0633	17,752.4	51.4562	17,752.4	48.886	17,752.4	49.4299	17,752.4	64.6342	17,752.4	43.627	17,752.4	72.2487	17,752.4	45.8477	17,752.4	74.4183	17,752.4	48.1892	17,752.4	68.7799	17,752.4	42.9916	17,752.4	54.0906	17,752.4	41.0561	17,752.4	37.7348	17,752.4	24.7005	17,752.4	34.9403	17,752.4	41.0249	17,752.4	39.8971	17,752.4	46.4468	17,752.4	43.9996	17,752.4	32.4684
18,379.4	87.3883	18,379.4	86.0636	18,379.4	85.0483	18,379.4	85.3328	18,379.4	85.6427	18,379.4	82.8401	18,379.4	82.262	18,379.4	78.658	18,379.4	78.34	18,379.4	72.3562	18,379.4	74.0004	18,379.4	69.0503	18,379.4	68.294	18,379.4	62.1891	18,379.4	59.109	18,379.4	50.1196	18,379.4	52.3459	18,379.4	48.5359	18,379.4	63.7192	18,379.4	46.5026	18,379.4	72.7005	18,379.4	47.3606	18,379.4	74.8781	18,379.4	48.6707	18,379.4	69.2855	18,379.4	39.0681	18,379.4	53.8924	18,379.4	36.1574	18,379.4	23.095	18,379.4	40.8155	18,379.4	37.6594	18,379.4	40.1501	18,379.4	47.2351	18,379.4	48.3106	18,379.4	47.2946	18,379.4	40.1609
19,026.9	86.6883	19,026.9	85.3975	19,026.9	85.633	19,026.9	86.2565	19,026.9	86.1553	19,026.9	82.9744	19,026.9	82.5416	19,026.9	78.6124	19,026.9	78.503	19,026.9	75.1443	19,026.9	74.8357	19,026.9	68.4989	19,026.9	67.0064	19,026.9	62.9652	19,026.9	61.9509	19,026.9	55.7459	19,026.9	56.0677	19,026.9	45.8724	19,026.9	62.8644	19,026.9	52.9239	19,026.9	71.7555	19,026.9	51.0042	19,026.9	73.9428	19,026.9	51.8164	19,026.9	68.0573	19,026.9	45.1804	19,026.9	52.0507	19,026.9	45.0685	19,026.9	36.8174	19,026.9	42.8764	19,026.9	40.2288	19,026.9	42.281	19,026.9	48.8386	19,026.9	48.3586	19,026.9	50.169	19,026.9	44.4384
19,697.8	84.8018	19,697.8	84.2061	19,697.8	85.3637	19,697.8	85.5199	19,697.8	85.1714	19,697.8	82.5882	19,697.8	82.4317	19,697.8	78.3033	19,697.8	78.1058	19,697.8	74.9759	19,697.8	73.3705	19,697.8	68.2021	19,697.8	63.7671	19,697.8	62.6604	19,697.8	62.5021	19,697.8	57.5315	19,697.8	54.5661	19,697.8	38.9441	19,697.8	60.0959	19,697.8	52.3889	19,697.8	69.7987	19,697.8	50.3655	19,697.8	71.7328	19,697.8	50.565	19,697.8	65.8114	19,697.8	43.6274	19,697.8	50.4015	19,697.8	47.8656	19,697.8	36.4424	19,697.8	39.2289	19,697.8	39.5334	19,697.8	47.9426	19,697.8	50.891	19,697.8	49.782	19,697.8	51.7446	19,697.8	44.4287
19,999.5	83.51	19,999.5	83.4339	19,999.5	84.7938	19,999.5	84.7899	19,999.5	84.4392	19,999.5	82.3827	19,999.5	82.6494	19,999.5	78.0171	19,999.5	78.1575	19,999.5	74.4115	19,999.5	72.424	19,999.5	68.0823	19,999.5	64.2186	19,999.5	61.9285	19,999.5	61.7893	19,999.5	56.2458	19,999.5	52.4051	19,999.5	47.4447	19,999.5	60.496	19,999.5	53.7646	19,999.5	68.793	19,999.5	50.7434	19,999.5	70.8998	19,999.5	55.4627	19,999.5	65.2893	19,999.5	44.7391	19,999.5	46.1411	19,999.5	51.3982	19,999.5	44.4923	19,999.5	38.2188	19,999.5	40.4848	19,999.5	55.1079	19,999.5	51.7046	19,999.5	57.6445	19,999.5	42.7361	19,999.5	50.2228
