"SPL Horizontal"																																																																							
"On-Axis"		"10°"		"-10°"		"20°"		"-20°"		"30°"		"-30°"		"40°"		"-40°"		"50°"		"-50°"		"60°"		"-60°"		"70°"		"-70°"		"80°"		"-80°"		"90°"		"-90°"		"100°"		"-100°"		"110°"		"-110°"		"120°"		"-120°"		"130°"		"-130°"		"140°"		"-140°"		"150°"		"-150°"		"160°"		"-160°"		"170°"		"-170°"		"180°"	
"Frequency / Hz"	"Sound Pressure Level / dB (re 20 µPa/V)  [2.83  V @ 1. m]"	"Frequency / Hz"	"Sound Pressure Level / dB (re 20 µPa/V)  [2.83  V @ 1. m]"	"Frequency / Hz"	"Sound Pressure Level / dB (re 20 µPa/V)  [2.83  V @ 1. m]"	"Frequency / Hz"	"Sound Pressure Level / dB (re 20 µPa/V)  [2.83  V @ 1. m]"	"Frequency / Hz"	"Sound Pressure Level / dB (re 20 µPa/V)  [2.83  V @ 1. m]"	"Frequency / Hz"	"Sound Pressure Level / dB (re 20 µPa/V)  [2.83  V @ 1. m]"	"Frequency / Hz"	"Sound Pressure Level / dB (re 20 µPa/V)  [2.83  V @ 1. m]"	"Frequency / Hz"	"Sound Pressure Level / dB (re 20 µPa/V)  [2.83  V @ 1. m]"	"Frequency / Hz"	"Sound Pressure Level / dB (re 20 µPa/V)  [2.83  V @ 1. m]"	"Frequency / Hz"	"Sound Pressure Level / dB (re 20 µPa/V)  [2.83  V @ 1. m]"	"Frequency / Hz"	"Sound Pressure Level / dB (re 20 µPa/V)  [2.83  V @ 1. m]"	"Frequency / Hz"	"Sound Pressure Level / dB (re 20 µPa/V)  [2.83  V @ 1. m]"	"Frequency / Hz"	"Sound Pressure Level / dB (re 20 µPa/V)  [2.83  V @ 1. m]"	"Frequency / Hz"	"Sound Pressure Level / dB (re 20 µPa/V)  [2.83  V @ 1. m]"	"Frequency / Hz"	"Sound Pressure Level / dB (re 20 µPa/V)  [2.83  V @ 1. m]"	"Frequency / Hz"	"Sound Pressure Level / dB (re 20 µPa/V)  [2.83  V @ 1. m]"	"Frequency / Hz"	"Sound Pressure Level / dB (re 20 µPa/V)  [2.83  V @ 1. m]"	"Frequency / Hz"	"Sound Pressure Level / dB (re 20 µPa/V)  [2.83  V @ 1. m]"	"Frequency / Hz"	"Sound Pressure Level / dB (re 20 µPa/V)  [2.83  V @ 1. m]"	"Frequency / Hz"	"Sound Pressure Level / dB (re 20 µPa/V)  [2.83  V @ 1. m]"	"Frequency / Hz"	"Sound Pressure Level / dB (re 20 µPa/V)  [2.83  V @ 1. m]"	"Frequency / Hz"	"Sound Pressure Level / dB (re 20 µPa/V)  [2.83  V @ 1. m]"	"Frequency / Hz"	"Sound Pressure Level / dB (re 20 µPa/V)  [2.83  V @ 1. m]"	"Frequency / Hz"	"Sound Pressure Level / dB (re 20 µPa/V)  [2.83  V @ 1. m]"	"Frequency / Hz"	"Sound Pressure Level / dB (re 20 µPa/V)  [2.83  V @ 1. m]"	"Frequency / Hz"	"Sound Pressure Level / dB (re 20 µPa/V)  [2.83  V @ 1. m]"	"Frequency / Hz"	"Sound Pressure Level / dB (re 20 µPa/V)  [2.83  V @ 1. m]"	"Frequency / Hz"	"Sound Pressure Level / dB (re 20 µPa/V)  [2.83  V @ 1. m]"	"Frequency / Hz"	"Sound Pressure Level / dB (re 20 µPa/V)  [2.83  V @ 1. m]"	"Frequency / Hz"	"Sound Pressure Level / dB (re 20 µPa/V)  [2.83  V @ 1. m]"	"Frequency / Hz"	"Sound Pressure Level / dB (re 20 µPa/V)  [2.83  V @ 1. m]"	"Frequency / Hz"	"Sound Pressure Level / dB (re 20 µPa/V)  [2.83  V @ 1. m]"	"Frequency / Hz"	"Sound Pressure Level / dB (re 20 µPa/V)  [2.83  V @ 1. m]"	"Frequency / Hz"	"Sound Pressure Level / dB (re 20 µPa/V)  [2.83  V @ 1. m]"	"Frequency / Hz"	"Sound Pressure Level / dB (re 20 µPa/V)  [2.83  V @ 1. m]"	"Frequency / Hz"	"Sound Pressure Level / dB (re 20 µPa/V)  [2.83  V @ 1. m]"
20.5078	48.3019	20.5078	48.2676	20.5078	48.3605	20.5078	48.2564	20.5078	48.4437	20.5078	48.2662	20.5078	48.5507	20.5078	48.2947	20.5078	48.6796	20.5078	48.3394	20.5078	48.8278	20.5078	48.3979	20.5078	48.9917	20.5078	48.4679	20.5078	49.1671	20.5078	48.5474	20.5078	49.3494	20.5078	48.6349	20.5078	49.5329	20.5078	48.7291	20.5078	49.71	20.5078	48.8292	20.5078	49.8709	20.5078	48.9354	20.5078	50.0033	20.5078	49.0487	20.5078	50.0943	20.5078	49.1715	20.5078	50.1331	20.5078	49.3064	20.5078	50.1143	20.5078	49.4545	20.5078	50.0404	20.5078	49.6129	20.5078	49.9215	20.5078	49.7733
21.9727	49.2378	21.9727	49.145	21.9727	49.343	21.9727	49.0672	21.9727	49.4577	21.9727	49.0068	21.9727	49.5789	21.9727	48.9657	21.9727	49.7035	21.9727	48.945	21.9727	49.8284	21.9727	48.9452	21.9727	49.9507	21.9727	48.966	21.9727	50.0673	21.9727	49.0061	21.9727	50.1756	21.9727	49.0641	21.9727	50.2729	21.9727	49.1379	21.9727	50.3562	21.9727	49.2258	21.9727	50.4216	21.9727	49.326	21.9727	50.4645	21.9727	49.437	21.9727	50.48	21.9727	49.5577	21.9727	50.4638	21.9727	49.6868	21.9727	50.4142	21.9727	49.8225	21.9727	50.3327	21.9727	49.9613	21.9727	50.2246	21.9727	50.0979
23.4375	47.4593	23.4375	47.4727	23.4375	47.4396	23.4375	47.4785	23.4375	47.4144	23.4375	47.4749	23.4375	47.3843	23.4375	47.4606	23.4375	47.3493	23.4375	47.434	23.4375	47.3091	23.4375	47.3944	23.4375	47.2633	23.4375	47.3415	23.4375	47.212	23.4375	47.2758	23.4375	47.1557	23.4375	47.1986	23.4375	47.0957	23.4375	47.112	23.4375	47.0337	23.4375	47.0187	23.4375	46.971	23.4375	46.9226	23.4375	46.9083	23.4375	46.8286	23.4375	46.8455	23.4375	46.7425	23.4375	46.7829	23.4375	46.6711	23.4375	46.7219	23.4375	46.6207	23.4375	46.6664	23.4375	46.5957	23.4375	46.6226	23.4375	46.5971
24.9023	51.1194	24.9023	51.1012	24.9023	51.129	24.9023	51.0749	24.9023	51.1297	24.9023	51.0415	24.9023	51.1216	24.9023	51.0021	24.9023	51.1047	24.9023	50.9577	24.9023	51.0793	24.9023	50.9098	24.9023	51.0459	24.9023	50.8594	24.9023	51.0049	24.9023	50.8075	24.9023	50.9569	24.9023	50.7547	24.9023	50.9025	24.9023	50.7014	24.9023	50.8427	24.9023	50.648	24.9023	50.7783	24.9023	50.5951	24.9023	50.7108	24.9023	50.5437	24.9023	50.6421	24.9023	50.4956	24.9023	50.575	24.9023	50.454	24.9023	50.5135	24.9023	50.4226	24.9023	50.462	24.9023	50.4054	24.9023	50.425	24.9023	50.4058
26.3672	51.9993	26.3672	51.988	26.3672	51.9949	26.3672	51.9622	26.3672	51.9739	26.3672	51.9236	26.3672	51.9361	26.3672	51.8739	26.3672	51.8813	26.3672	51.8151	26.3672	51.8101	26.3672	51.7488	26.3672	51.7237	26.3672	51.6768	26.3672	51.6241	26.3672	51.5999	26.3672	51.5139	26.3672	51.5193	26.3672	51.3969	26.3672	51.4355	26.3672	51.2779	26.3672	51.3492	26.3672	51.162	26.3672	51.2615	26.3672	51.0551	26.3672	51.1738	26.3672	50.9627	26.3672	51.0882	26.3672	50.8895	26.3672	51.0077	26.3672	50.8389	26.3672	50.9357	26.3672	50.8129	26.3672	50.8763	26.3672	50.8116	26.3672	50.8337
27.832	54.3453	27.832	54.3183	27.832	54.3583	27.832	54.2787	27.832	54.3569	27.832	54.2281	27.832	54.3407	27.832	54.1683	27.832	54.3101	27.832	54.1015	27.832	54.2655	27.832	54.0296	27.832	54.2078	27.832	53.9544	27.832	54.138	27.832	53.8775	27.832	54.0577	27.832	53.8	27.832	53.9686	27.832	53.7235	27.832	53.8735	27.832	53.6493	27.832	53.7757	27.832	53.5795	27.832	53.6795	27.832	53.5158	27.832	53.5894	27.832	53.4604	27.832	53.5102	27.832	53.4152	27.832	53.4457	27.832	53.3819	27.832	53.3982	27.832	53.362	27.832	53.3689	27.832	53.3572
29.2969	55.8678	29.2969	55.8513	29.2969	55.8684	29.2969	55.8203	29.2969	55.8523	29.2969	55.7766	29.2969	55.8192	29.2969	55.7221	29.2969	55.7694	29.2969	55.6592	29.2969	55.7036	29.2969	55.5898	29.2969	55.6235	29.2969	55.5157	29.2969	55.5309	29.2969	55.4385	29.2969	55.4286	29.2969	55.3595	29.2969	55.3199	29.2969	55.2801	29.2969	55.2089	29.2969	55.2015	29.2969	55.1004	29.2969	55.125	29.2969	54.9997	29.2969	55.0519	29.2969	54.9123	29.2969	54.9833	29.2969	54.843	29.2969	54.9205	29.2969	54.7953	29.2969	54.865	29.2969	54.7706	29.2969	54.819	29.2969	54.7682	29.2969	54.7856
30.7617	58.2516	30.7617	58.2268	30.7617	58.2596	30.7617	58.1866	30.7617	58.2503	30.7617	58.1327	30.7617	58.2234	30.7617	58.0669	30.7617	58.1794	30.7617	57.9918	30.7617	58.1191	30.7617	57.9094	30.7617	58.0439	30.7617	57.822	30.7617	57.9554	30.7617	57.7314	30.7617	57.856	30.7617	57.6394	30.7617	57.7483	30.7617	57.5478	30.7617	57.6357	30.7617	57.4583	30.7617	57.5222	30.7617	57.3727	30.7617	57.4126	30.7617	57.2934	30.7617	57.3119	30.7617	57.2227	30.7617	57.2251	30.7617	57.163	30.7617	57.1562	30.7617	57.1167	30.7617	57.1075	30.7617	57.0862	30.7617	57.0801	30.7617	57.0734
32.2266	60.2081	32.2266	60.1938	32.2266	60.2083	32.2266	60.1663	32.2266	60.1942	32.2266	60.1266	32.2266	60.166	32.2266	60.0766	32.2266	60.1246	32.2266	60.0179	32.2266	60.0713	32.2266	59.9527	32.2266	60.0078	32.2266	59.8829	32.2266	59.9363	32.2266	59.8104	32.2266	59.8591	32.2266	59.7373	32.2266	59.7789	32.2266	59.6653	32.2266	59.6984	32.2266	59.5963	32.2266	59.6205	32.2266	59.5322	32.2266	59.5479	32.2266	59.4747	32.2266	59.4834	32.2266	59.4255	32.2266	59.429	32.2266	59.3859	32.2266	59.3863	32.2266	59.3569	32.2266	59.356	32.2266	59.3391	32.2266	59.3383	32.2266	59.3327
33.6914	62.2405	33.6914	62.2316	33.6914	62.2355	33.6914	62.2093	33.6914	62.2165	33.6914	62.1745	33.6914	62.1838	33.6914	62.1285	33.6914	62.1383	33.6914	62.0729	33.6914	62.0812	33.6914	62.0094	33.6914	62.0142	33.6914	61.9399	33.6914	61.9394	33.6914	61.8661	33.6914	61.8591	33.6914	61.7901	33.6914	61.776	33.6914	61.7138	33.6914	61.6928	33.6914	61.6394	33.6914	61.6125	33.6914	61.5688	33.6914	61.5381	33.6914	61.5041	33.6914	61.4721	33.6914	61.4474	33.6914	61.417	33.6914	61.4002	33.6914	61.3743	33.6914	61.364	33.6914	61.3452	33.6914	61.3397	33.6914	61.3299	33.6914	61.3282
35.1562	63.9604	35.1562	63.9451	35.1562	63.9624	35.1562	63.917	35.1562	63.9511	35.1562	63.8771	35.1562	63.9267	35.1562	63.8266	35.1562	63.89	35.1562	63.7669	35.1562	63.8419	35.1562	63.6998	35.1562	63.7838	35.1562	63.6273	35.1562	63.7175	35.1562	63.5515	35.1562	63.645	35.1562	63.4746	35.1562	63.5684	35.1562	63.3988	35.1562	63.4902	35.1562	63.3265	35.1562	63.4129	35.1562	63.2598	35.1562	63.339	35.1562	63.201	35.1562	63.2709	35.1562	63.152	35.1562	63.2107	35.1562	63.1144	35.1562	63.1602	35.1562	63.0893	35.1562	63.1207	35.1562	63.0773	35.1562	63.0933	35.1562	63.0787
36.6211	65.6076	36.6211	65.5947	36.6211	65.6087	36.6211	65.5704	36.6211	65.5979	36.6211	65.5354	36.6211	65.5755	36.6211	65.4908	36.6211	65.5424	36.6211	65.4381	36.6211	65.4994	36.6211	65.3789	36.6211	65.4481	36.6211	65.3151	36.6211	65.3899	36.6211	65.2486	36.6211	65.3269	36.6211	65.1814	36.6211	65.2609	36.6211	65.1156	36.6211	65.194	36.6211	65.0534	36.6211	65.1284	36.6211	64.9965	36.6211	65.066	36.6211	64.9468	36.6211	65.0088	36.6211	64.9057	36.6211	64.9582	36.6211	64.8745	36.6211	64.9157	36.6211	64.854	36.6211	64.8824	36.6211	64.8445	36.6211	64.859	36.6211	64.8463
38.0859	66.9663	38.0859	66.9526	38.0859	66.9677	38.0859	66.9269	38.0859	66.9568	38.0859	66.8901	38.0859	66.9338	38.0859	66.8432	38.0859	66.8996	38.0859	66.7878	38.0859	66.8553	38.0859	66.7254	38.0859	66.8021	38.0859	66.658	38.0859	66.7418	38.0859	66.5878	38.0859	66.6762	38.0859	66.5168	38.0859	66.6074	38.0859	66.4474	38.0859	66.5376	38.0859	66.3816	38.0859	66.4688	38.0859	66.3216	38.0859	66.4032	38.0859	66.2692	38.0859	66.3425	38.0859	66.226	38.0859	66.2885	38.0859	66.1933	38.0859	66.2426	38.0859	66.172	38.0859	66.2061	38.0859	66.1627	38.0859	66.1801	38.0859	66.1655
39.5508	68.2716	39.5508	68.2599	39.5508	68.2721	39.5508	68.2374	39.5508	68.2613	39.5508	68.2047	39.5508	68.2395	39.5508	68.1629	39.5508	68.2075	39.5508	68.1133	39.5508	68.1662	39.5508	68.0576	39.5508	68.117	39.5508	67.9974	39.5508	68.0616	39.5508	67.9348	39.5508	68.0018	39.5508	67.8718	39.5508	67.9396	39.5508	67.8104	39.5508	67.8771	39.5508	67.7525	39.5508	67.8163	39.5508	67.6998	39.5508	67.7591	39.5508	67.654	39.5508	67.707	39.5508	67.6163	39.5508	67.6613	39.5508	67.5876	39.5508	67.6231	39.5508	67.5686	39.5508	67.5932	39.5508	67.5598	39.5508	67.5723	39.5508	67.561
41.0156	69.326	41.0156	69.314	41.0156	69.3276	41.0156	69.292	41.0156	69.3192	41.0156	69.2605	41.0156	69.301	41.0156	69.2203	41.0156	69.274	41.0156	69.1726	41.0156	69.2392	41.0156	69.119	41.0156	69.1978	41.0156	69.0614	41.0156	69.1514	41.0156	69.0017	41.0156	69.1018	41.0156	68.9423	41.0156	69.0506	41.0156	68.8854	41.0156	68.9996	41.0156	68.8332	41.0156	68.9502	41.0156	68.7877	41.0156	68.9036	41.0156	68.7504	41.0156	68.8604	41.0156	68.7228	41.0156	68.8212	41.0156	68.7053	41.0156	68.7862	41.0156	68.698	41.0156	68.7558	41.0156	68.7005	41.0156	68.7307	41.0156	68.7118
42.4805	70.4345	42.4805	70.4239	42.4805	70.4325	42.4805	70.4012	42.4805	70.4182	42.4805	70.3671	42.4805	70.3917	42.4805	70.3223	42.4805	70.354	42.4805	70.2683	42.4805	70.306	42.4805	70.2065	42.4805	70.2493	42.4805	70.1388	42.4805	70.1855	42.4805	70.0671	42.4805	70.1168	42.4805	69.9937	42.4805	70.0454	42.4805	69.9209	42.4805	69.9735	42.4805	69.8511	42.4805	69.9034	42.4805	69.7867	42.4805	69.8372	42.4805	69.7297	42.4805	69.7767	42.4805	69.6821	42.4805	69.7234	42.4805	69.6453	42.4805	69.6788	42.4805	69.6203	42.4805	69.644	42.4805	69.6077	42.4805	69.62	42.4805	69.6078
43.9453	71.3114	43.9453	71.3023	43.9453	71.3088	43.9453	71.2815	43.9453	71.2944	43.9453	71.2498	43.9453	71.2687	43.9453	71.2081	43.9453	71.2323	43.9453	71.1574	43.9453	71.1864	43.9453	71.0994	43.9453	71.1324	43.9453	71.0358	43.9453	71.0718	43.9453	70.9684	43.9453	71.0068	43.9453	70.8994	43.9453	70.9393	43.9453	70.8311	43.9453	70.8716	43.9453	70.7656	43.9453	70.8056	43.9453	70.7049	43.9453	70.7435	43.9453	70.651	43.9453	70.6868	43.9453	70.6056	43.9453	70.637	43.9453	70.5701	43.9453	70.5955	43.9453	70.5455	43.9453	70.5634	43.9453	70.5324	43.9453	70.5417	43.9453	70.5312
45.4102	72.2173	45.4102	72.2078	45.4102	72.2154	45.4102	72.1872	45.4102	72.2021	45.4102	72.1561	45.4102	72.1777	45.4102	72.1155	45.4102	72.1429	45.4102	72.0667	45.4102	72.0988	45.4102	72.0112	45.4102	72.0468	45.4102	71.9506	45.4102	71.9885	45.4102	71.8869	45.4102	71.926	45.4102	71.8222	45.4102	71.8612	45.4102	71.7584	45.4102	71.7963	45.4102	71.6976	45.4102	71.7335	45.4102	71.6415	45.4102	71.6746	45.4102	71.5919	45.4102	71.6213	45.4102	71.5502	45.4102	71.5751	45.4102	71.5174	45.4102	71.537	45.4102	71.4945	45.4102	71.508	45.4102	71.4819	45.4102	71.4888	45.4102	71.4801
46.875	73.0442	46.875	73.034	46.875	73.0429	46.875	73.0126	46.875	73.0301	46.875	72.9806	46.875	73.0063	46.875	72.9392	46.875	72.9723	46.875	72.8896	46.875	72.9292	46.875	72.8336	46.875	72.8785	46.875	72.7731	46.875	72.8222	46.875	72.7101	46.875	72.762	46.875	72.6468	46.875	72.7001	46.875	72.5854	46.875	72.6387	46.875	72.5279	46.875	72.5795	46.875	72.4761	46.875	72.5244	46.875	72.4313	46.875	72.4748	46.875	72.3947	46.875	72.4317	46.875	72.3669	46.875	72.3961	46.875	72.3485	46.875	72.3686	46.875	72.3395	46.875	72.3498	46.875	72.34
48.3398	73.7523	48.3398	73.7398	48.3398	73.7526	48.3398	73.7157	48.3398	73.7408	48.3398	73.6806	48.3398	73.7172	48.3398	73.6357	48.3398	73.6824	48.3398	73.5822	48.3398	73.6375	48.3398	73.5218	48.3398	73.5839	48.3398	73.4564	48.3398	73.5233	48.3398	73.3882	48.3398	73.4578	48.3398	73.3193	48.3398	73.3894	48.3398	73.2518	48.3398	73.3206	48.3398	73.188	48.3398	73.2534	48.3398	73.1298	48.3398	73.19	48.3398	73.0789	48.3398	73.1321	48.3398	73.0366	48.3398	73.0814	48.3398	73.0042	48.3398	73.0392	48.3398	72.9824	48.3398	73.0064	48.3398	72.9716	48.3398	72.9838	48.3398	72.9721
51.2695	75.1977	51.2695	75.1858	51.2695	75.1976	51.2695	75.1622	51.2695	75.1853	51.2695	75.1276	51.2695	75.1613	51.2695	75.0831	51.2695	75.1263	51.2695	75.03	51.2695	75.0811	51.2695	74.9701	51.2695	75.0274	51.2695	74.905	51.2695	74.9666	51.2695	74.837	51.2695	74.9008	51.2695	74.768	51.2695	74.8321	51.2695	74.7004	51.2695	74.7626	51.2695	74.6361	51.2695	74.6947	51.2695	74.5772	51.2695	74.6305	51.2695	74.5253	51.2695	74.5719	51.2695	74.482	51.2695	74.5206	51.2695	74.4483	51.2695	74.4781	51.2695	74.4251	51.2695	74.4454	51.2695	74.4131	51.2695	74.4233	51.2695	74.4125
52.7344	75.9264	52.7344	75.9134	52.7344	75.9276	52.7344	75.8892	52.7344	75.9171	52.7344	75.8545	52.7344	75.895	52.7344	75.8106	52.7344	75.8622	52.7344	75.7589	52.7344	75.8196	52.7344	75.7011	52.7344	75.7688	52.7344	75.6392	52.7344	75.7114	52.7344	75.5752	52.7344	75.6495	52.7344	75.5113	52.7344	75.5851	52.7344	75.4494	52.7344	75.5204	52.7344	75.3915	52.7344	75.4576	52.7344	75.3392	52.7344	75.3987	52.7344	75.2939	52.7344	75.3453	52.7344	75.2566	52.7344	75.2989	52.7344	75.2283	52.7344	75.2606	52.7344	75.2093	52.7344	75.2311	52.7344	75.2	52.7344	75.211	52.7344	75.2006
54.1992	76.6341	54.1992	76.6202	54.1992	76.6363	54.1992	76.595	54.1992	76.6266	54.1992	76.5594	54.1992	76.6053	54.1992	76.5147	54.1992	76.5732	54.1992	76.4625	54.1992	76.5314	54.1992	76.4045	54.1992	76.4813	54.1992	76.3429	54.1992	76.4246	54.1992	76.2797	54.1992	76.3635	54.1992	76.2171	54.1992	76.3	54.1992	76.1571	54.1992	76.2365	54.1992	76.1015	54.1992	76.1749	54.1992	76.0518	54.1992	76.1173	54.1992	76.0093	54.1992	76.0653	54.1992	75.9747	54.1992	76.0203	54.1992	75.9487	54.1992	75.9832	54.1992	75.9316	54.1992	75.9547	54.1992	75.9236	54.1992	75.9351	54.1992	75.9247
55.6641	77.4658	55.6641	77.454	55.6641	77.4649	55.6641	77.4301	55.6641	77.4514	55.6641	77.3948	55.6641	77.4257	55.6641	77.3496	55.6641	77.3885	55.6641	77.2958	55.6641	77.3411	55.6641	77.2355	55.6641	77.2852	55.6641	77.1706	55.6641	77.2226	55.6641	77.1035	55.6641	77.1557	55.6641	77.0365	55.6641	77.0868	55.6641	76.9716	55.6641	77.0184	55.6641	76.9109	55.6641	76.9528	55.6641	76.8561	55.6641	76.8921	55.6641	76.8086	55.6641	76.8381	55.6641	76.7692	55.6641	76.7922	55.6641	76.7387	55.6641	76.7554	55.6641	76.7174	55.6641	76.7282	55.6641	76.7056	55.6641	76.7109	55.6641	76.7034
58.5938	78.9475	58.5938	78.9354	58.5938	78.9462	58.5938	78.9106	58.5938	78.9315	58.5938	78.874	58.5938	78.9039	58.5938	78.827	58.5938	78.8643	58.5938	78.7714	58.5938	78.814	58.5938	78.7092	58.5938	78.7548	58.5938	78.6426	58.5938	78.6889	58.5938	78.5739	58.5938	78.6188	58.5938	78.5056	58.5938	78.5471	58.5938	78.4398	58.5938	78.4765	58.5938	78.3785	58.5938	78.4093	58.5938	78.3232	58.5938	78.3478	58.5938	78.2753	58.5938	78.2938	58.5938	78.2356	58.5938	78.2487	58.5938	78.2046	58.5938	78.2131	58.5938	78.1825	58.5938	78.1876	58.5938	78.1696	58.5938	78.1719	58.5938	78.166
60.0586	79.6208	60.0586	79.6061	60.0586	79.621	60.0586	79.5779	60.0586	79.6068	60.0586	79.5371	60.0586	79.5781	60.0586	79.4855	60.0586	79.5359	60.0586	79.4248	60.0586	79.4815	60.0586	79.3572	60.0586	79.4166	60.0586	79.285	60.0586	79.3434	60.0586	79.2106	60.0586	79.2645	60.0586	79.1362	60.0586	79.183	60.0586	79.0642	60.0586	79.1017	60.0586	78.9964	60.0586	79.0236	60.0586	78.9345	60.0586	78.9517	60.0586	78.8799	60.0586	78.8884	60.0586	78.8335	60.0586	78.8354	60.0586	78.7961	60.0586	78.7942	60.0586	78.7683	60.0586	78.7652	60.0586	78.7507	60.0586	78.7486	60.0586	78.7439
62.9883	80.819	62.9883	80.7982	62.9883	80.8279	62.9883	80.766	62.9883	80.8246	62.9883	80.7236	62.9883	80.8092	62.9883	80.6726	62.9883	80.7823	62.9883	80.6147	62.9883	80.7449	62.9883	80.5521	62.9883	80.6985	62.9883	80.4871	62.9883	80.6446	62.9883	80.4218	62.9883	80.5852	62.9883	80.3586	62.9883	80.5223	62.9883	80.2994	62.9883	80.458	62.9883	80.2459	62.9883	80.3944	62.9883	80.1995	62.9883	80.3335	62.9883	80.1612	62.9883	80.2771	62.9883	80.1316	62.9883	80.2268	62.9883	80.1111	62.9883	80.1837	62.9883	80.0999	62.9883	80.1488	62.9883	80.0982	62.9883	80.1227	62.9883	80.1058
64.4531	81.4529	64.4531	81.4338	64.4531	81.4594	64.4531	81.4026	64.4531	81.453	64.4531	81.3605	64.4531	81.4343	64.4531	81.3092	64.4531	81.4041	64.4531	81.2506	64.4531	81.3638	64.4531	81.187	64.4531	81.3151	64.4531	81.121	64.4531	81.2601	64.4531	81.0552	64.4531	81.201	64.4531	80.9919	64.4531	81.14	64.4531	80.9335	64.4531	81.0793	64.4531	80.8817	64.4531	81.0208	64.4531	80.8379	64.4531	80.9661	64.4531	80.8031	64.4531	80.9164	64.4531	80.7775	64.4531	80.8727	64.4531	80.7613	64.4531	80.8353	64.4531	80.754	64.4531	80.8047	64.4531	80.7552	64.4531	80.7809	64.4531	80.7643
67.3828	82.2485	67.3828	82.2291	67.3828	82.2536	67.3828	82.196	67.3828	82.2441	67.3828	82.1505	67.3828	82.2206	67.3828	82.0944	67.3828	82.1839	67.3828	82.03	67.3828	82.1358	67.3828	81.9599	67.3828	82.0782	67.3828	81.8869	67.3828	82.0135	67.3828	81.8138	67.3828	81.9444	67.3828	81.7435	67.3828	81.8735	67.3828	81.6784	67.3828	81.8036	67.3828	81.6204	67.3828	81.737	67.3828	81.5712	67.3828	81.6758	67.3828	81.5314	67.3828	81.6215	67.3828	81.5014	67.3828	81.5751	67.3828	81.481	67.3828	81.5369	67.3828	81.4696	67.3828	81.5072	67.3828	81.4669	67.3828	81.4858	67.3828	81.4723
68.8477	82.4855	68.8477	82.4659	68.8477	82.4902	68.8477	82.432	68.8477	82.4798	68.8477	82.3853	68.8477	82.4548	68.8477	82.3275	68.8477	82.4163	68.8477	82.2611	68.8477	82.3658	68.8477	82.1885	68.8477	82.3056	68.8477	82.1129	68.8477	82.2381	68.8477	82.0372	68.8477	82.166	68.8477	81.9642	68.8477	82.0923	68.8477	81.8967	68.8477	82.0198	68.8477	81.8365	68.8477	81.951	68.8477	81.7854	68.8477	81.888	68.8477	81.7442	68.8477	81.8323	68.8477	81.713	68.8477	81.7849	68.8477	81.6917	68.8477	81.7463	68.8477	81.6797	68.8477	81.7164	68.8477	81.6765	68.8477	81.6949	68.8477	81.6816
71.7773	82.7703	71.7773	82.7491	71.7773	82.7761	71.7773	82.7133	71.7773	82.7666	71.7773	82.6641	71.7773	82.7421	71.7773	82.6035	71.7773	82.7038	71.7773	82.5338	71.7773	82.6533	71.7773	82.4577	71.7773	82.5927	71.7773	82.3784	71.7773	82.5246	71.7773	82.299	71.7773	82.4518	71.7773	82.2227	71.7773	82.377	71.7773	82.1521	71.7773	82.3031	71.7773	82.0896	71.7773	82.2326	71.7773	82.0369	71.7773	82.1674	71.7773	81.9949	71.7773	82.1092	71.7773	81.9639	71.7773	82.0588	71.7773	81.9437	71.7773	82.0169	71.7773	81.9336	71.7773	81.9833	71.7773	81.9331	71.7773	81.9582	71.7773	81.9414
74.707	82.9592	74.707	82.9411	74.707	82.9616	74.707	82.9078	74.707	82.9482	74.707	82.8606	74.707	82.9197	74.707	82.8012	74.707	82.8774	74.707	82.7321	74.707	82.8232	74.707	82.6561	74.707	82.7594	74.707	82.5762	74.707	82.6886	74.707	82.4958	74.707	82.6139	74.707	82.4179	74.707	82.538	74.707	82.3456	74.707	82.464	74.707	82.2812	74.707	82.3941	74.707	82.2265	74.707	82.3304	74.707	82.1826	74.707	82.2742	74.707	82.1497	74.707	82.2264	74.707	82.1276	74.707	82.1871	74.707	82.1157	74.707	82.1563	74.707	82.1132	74.707	82.1337	74.707	82.1193
77.6367	83.1397	77.6367	83.1239	77.6367	83.1401	77.6367	83.0931	77.6367	83.125	77.6367	83.0486	77.6367	83.0953	77.6367	82.9923	77.6367	83.0522	77.6367	82.9264	77.6367	82.9977	77.6367	82.8537	77.6367	82.9342	77.6367	82.7773	77.6367	82.8644	77.6367	82.7003	77.6367	82.7914	77.6367	82.6259	77.6367	82.7181	77.6367	82.5568	77.6367	82.6472	77.6367	82.4953	77.6367	82.5811	77.6367	82.443	77.6367	82.5216	77.6367	82.4009	77.6367	82.4699	77.6367	82.369	77.6367	82.4266	77.6367	82.3472	77.6367	82.3917	77.6367	82.3346	77.6367	82.3649	77.6367	82.3306	77.6367	82.346	77.6367	82.3345
79.1016	83.2571	79.1016	83.2412	79.1016	83.2573	79.1016	83.2101	79.1016	83.2416	79.1016	83.1651	79.1016	83.211	79.1016	83.108	79.1016	83.1666	79.1016	83.0414	79.1016	83.1107	79.1016	82.9679	79.1016	83.0456	79.1016	82.8908	79.1016	82.9742	79.1016	82.8133	79.1016	82.8996	79.1016	82.7384	79.1016	82.8249	79.1016	82.6689	79.1016	82.753	79.1016	82.6071	79.1016	82.6863	79.1016	82.5546	79.1016	82.6266	79.1016	82.5122	79.1016	82.5751	79.1016	82.48	79.1016	82.5322	79.1016	82.4578	79.1016	82.498	79.1016	82.4447	79.1016	82.472	79.1016	82.44	79.1016	82.4538	79.1016	82.4432
82.0312	83.43	82.0312	83.4142	82.0312	83.4302	82.0312	83.3836	82.0312	83.4151	82.0312	83.3396	82.0312	83.3853	82.0312	83.2841	82.0312	83.3423	82.0312	83.2196	82.0312	83.2883	82.0312	83.1491	82.0312	83.2259	82.0312	83.0759	82.0312	83.1582	82.0312	83.0032	82.0312	83.0883	82.0312	82.9342	82.0312	83.0194	82.0312	82.8714	82.0312	82.9543	82.0312	82.8171	82.0312	82.8954	82.0312	82.7725	82.0312	82.844	82.0312	82.7381	82.0312	82.8008	82.0312	82.7135	82.0312	82.7659	82.0312	82.6979	82.0312	82.7386	82.0312	82.69	82.0312	82.7179	82.0312	82.6888	82.0312	82.703	82.0312	82.6933
84.9609	83.6478	84.9609	83.6341	84.9609	83.6479	84.9609	83.6076	84.9609	83.6342	84.9609	83.5697	84.9609	83.6072	84.9609	83.5224	84.9609	83.5682	84.9609	83.4681	84.9609	83.519	84.9609	83.4096	84.9609	83.462	84.9609	83.3497	84.9609	83.4001	84.9609	83.291	84.9609	83.3362	84.9609	83.2359	84.9609	83.2735	84.9609	83.1863	84.9609	83.2147	84.9609	83.1435	84.9609	83.1621	84.9609	83.1079	84.9609	83.1175	84.9609	83.0794	84.9609	83.0816	84.9609	83.0575	84.9609	83.0545	84.9609	83.0411	84.9609	83.0358	84.9609	83.0295	84.9609	83.0242	84.9609	83.0219	84.9609	83.0188	84.9609	83.0182
87.8906	84.0181	87.8906	84.0036	87.8906	84.0125	87.8906	83.9699	87.8906	83.9871	87.8906	83.9188	87.8906	83.9434	87.8906	83.8534	87.8906	83.8841	87.8906	83.7776	87.8906	83.813	87.8906	83.6959	87.8906	83.7345	87.8906	83.6136	87.8906	83.6539	87.8906	83.5357	87.8906	83.5765	87.8906	83.4668	87.8906	83.5073	87.8906	83.4108	87.8906	83.4502	87.8906	83.37	87.8906	83.4076	87.8906	83.3448	87.8906	83.38	87.8906	83.334	87.8906	83.3659	87.8906	83.3346	87.8906	83.3622	87.8906	83.3426	87.8906	83.3647	87.8906	83.3537	87.8906	83.3692	87.8906	83.3638	87.8906	83.3718	87.8906	83.3702
90.8203	84.5236	90.8203	84.5054	90.8203	84.521	90.8203	84.4673	90.8203	84.4971	90.8203	84.411	90.8203	84.4521	90.8203	84.3387	90.8203	84.3872	90.8203	84.253	90.8203	84.3039	90.8203	84.157	90.8203	84.2049	90.8203	84.0537	90.8203	84.0933	90.8203	83.9466	90.8203	83.9733	90.8203	83.8389	90.8203	83.8492	90.8203	83.7336	90.8203	83.7262	90.8203	83.6336	90.8203	83.6091	90.8203	83.541	90.8203	83.5027	90.8203	83.458	90.8203	83.4108	90.8203	83.3859	90.8203	83.3363	90.8203	83.3259	90.8203	83.2809	90.8203	83.2791	90.8203	83.245	90.8203	83.2464	90.8203	83.228	90.8203	83.2289
95.2148	84.6305	95.2148	84.604	95.2148	84.6397	95.2148	84.561	95.2148	84.6315	95.2148	84.5031	95.2148	84.6068	95.2148	84.4329	95.2148	84.5669	95.2148	84.3536	95.2148	84.514	95.2148	84.2689	95.2148	84.4506	95.2148	84.183	95.2148	84.3799	95.2148	84.1001	95.2148	84.3049	95.2148	84.0239	95.2148	84.229	95.2148	83.9575	95.2148	84.1551	95.2148	83.9028	95.2148	84.0859	95.2148	83.8606	95.2148	84.0236	95.2148	83.8308	95.2148	83.9693	95.2148	83.8121	95.2148	83.9237	95.2148	83.803	95.2148	83.8865	95.2148	83.8018	95.2148	83.857	95.2148	83.807	95.2148	83.8345	95.2148	83.818
98.1445	84.7935	98.1445	84.7745	98.1445	84.7949	98.1445	84.7387	98.1445	84.779	98.1445	84.6876	98.1445	84.7469	98.1445	84.6235	98.1445	84.7005	98.1445	84.5496	98.1445	84.6422	98.1445	84.4696	98.1445	84.575	98.1445	84.3876	98.1445	84.5025	98.1445	84.3078	98.1445	84.428	98.1445	84.2342	98.1445	84.3549	98.1445	84.1699	98.1445	84.2861	98.1445	84.1169	98.1445	84.2241	98.1445	84.0761	98.1445	84.1703	98.1445	84.0471	98.1445	84.1257	98.1445	84.0284	98.1445	84.0901	98.1445	84.0181	98.1445	84.063	98.1445	84.0142	98.1445	84.0432	98.1445	84.0152	98.1445	84.0293	98.1445	84.0202
101.074	84.8566	101.074	84.8381	101.074	84.8568	101.074	84.8021	101.074	84.8388	101.074	84.7507	101.074	84.8037	101.074	84.6867	101.074	84.7539	101.074	84.6139	101.074	84.6924	101.074	84.5365	101.074	84.6229	101.074	84.4591	101.074	84.5497	101.074	84.3862	101.074	84.4771	101.074	84.3217	101.074	84.4089	101.074	84.2687	101.074	84.3485	101.074	84.2287	101.074	84.298	101.074	84.2017	101.074	84.2584	101.074	84.1863	101.074	84.2297	101.074	84.1799	101.074	84.2107	101.074	84.1794	101.074	84.1993	101.074	84.1819	101.074	84.1933	101.074	84.1851	101.074	84.1901	101.074	84.1878
105.469	85.0175	105.469	84.9922	105.469	85.0229	105.469	84.9478	105.469	85.0084	105.469	84.8864	105.469	84.9753	105.469	84.8107	105.469	84.9259	105.469	84.7247	105.469	84.8632	105.469	84.6329	105.469	84.7913	105.469	84.5403	105.469	84.7148	105.469	84.4522	105.469	84.6383	105.469	84.3734	105.469	84.5661	105.469	84.3079	105.469	84.5017	105.469	84.2586	105.469	84.4474	105.469	84.2263	105.469	84.4038	105.469	84.2104	105.469	84.3702	105.469	84.2086	105.469	84.3447	105.469	84.2175	105.469	84.3245	105.469	84.2331	105.469	84.3068	105.469	84.2519	105.469	84.2895	105.469	84.2712
108.398	85.0694	108.398	85.0393	108.398	85.0783	108.398	84.9893	108.398	85.0662	108.398	84.9216	108.398	85.0342	108.398	84.8394	108.398	84.9845	108.398	84.7469	108.398	84.9203	108.398	84.6489	108.398	84.8458	108.398	84.5509	108.398	84.7657	108.398	84.4583	108.398	84.6849	108.398	84.3761	108.398	84.608	108.398	84.3083	108.398	84.5388	108.398	84.2578	108.398	84.4799	108.398	84.2254	108.398	84.4322	108.398	84.2102	108.398	84.3951	108.398	84.2098	108.398	84.3665	108.398	84.2207	108.398	84.3437	108.398	84.2387	108.398	84.3234	108.398	84.2602	108.398	84.3034	108.398	84.2823
112.793	85.1414	112.793	85.1174	112.793	85.1437	112.793	85.0726	112.793	85.1246	112.793	85.009	112.793	85.0855	112.793	84.9299	112.793	85.0291	112.793	84.8393	112.793	84.9589	112.793	84.7424	112.793	84.8791	112.793	84.6444	112.793	84.7945	112.793	84.5511	112.793	84.7099	112.793	84.4674	112.793	84.6299	112.793	84.3974	112.793	84.5581	112.793	84.344	112.793	84.4972	112.793	84.3078	112.793	84.4482	112.793	84.2878	112.793	84.4108	112.793	84.2815	112.793	84.3834	112.793	84.2852	112.793	84.3634	112.793	84.2952	112.793	84.3481	112.793	84.3081	112.793	84.3348	112.793	84.3216
117.188	85.1923	117.188	85.1761	117.188	85.1841	117.188	85.1366	117.188	85.152	117.188	85.0759	117.188	85.0976	117.188	84.9977	117.188	85.0242	117.188	84.9064	117.188	84.9362	117.188	84.8074	117.188	84.839	117.188	84.7064	117.188	84.7386	117.188	84.6092	117.188	84.6412	117.188	84.5213	117.188	84.5524	117.188	84.4469	117.188	84.4768	117.188	84.3888	117.188	84.417	117.188	84.3479	117.188	84.3738	117.188	84.3231	117.188	84.3459	117.188	84.3115	117.188	84.3306	117.188	84.3093	117.188	84.324	117.188	84.3123	117.188	84.3222	117.188	84.3167	117.188	84.3218	117.188	84.3202
120.117	85.3103	120.117	85.2861	120.117	85.3087	120.117	85.2374	120.117	85.2813	120.117	85.1667	120.117	85.2296	120.117	85.0778	120.117	85.1564	120.117	84.9756	120.117	85.0658	120.117	84.8657	120.117	84.9633	120.117	84.7546	120.117	84.855	120.117	84.6485	120.117	84.7478	120.117	84.5534	120.117	84.6481	120.117	84.474	120.117	84.5614	120.117	84.413	120.117	84.4915	120.117	84.3714	120.117	84.4398	120.117	84.3477	120.117	84.4053	120.117	84.3387	120.117	84.3851	120.117	84.3399	120.117	84.3749	120.117	84.3468	120.117	84.3702	120.117	84.3551	120.117	84.3669	120.117	84.3621
124.512	85.5394	124.512	85.5059	124.512	85.5466	124.512	85.4472	124.512	85.5271	124.512	85.3657	124.512	85.4815	124.512	85.2646	124.512	85.4116	124.512	85.1482	124.512	85.3204	124.512	85.0216	124.512	85.2119	124.512	84.8907	124.512	85.0912	124.512	84.7617	124.512	84.9646	124.512	84.6409	124.512	84.8385	124.512	84.5338	124.512	84.7195	124.512	84.4449	124.512	84.6131	124.512	84.3764	124.512	84.5234	124.512	84.3285	124.512	84.4521	124.512	84.2995	124.512	84.3984	124.512	84.286	124.512	84.3599	124.512	84.2838	124.512	84.3328	124.512	84.2891	124.512	84.3136	124.512	84.2993
128.906	85.4657	128.906	85.4382	128.906	85.4697	128.906	85.3882	128.906	85.4505	128.906	85.318	128.906	85.4094	128.906	85.2309	128.906	85.3489	128.906	85.1313	128.906	85.2726	128.906	85.0246	128.906	85.1848	128.906	84.9165	128.906	85.0904	128.906	84.8132	128.906	84.9948	128.906	84.7201	128.906	84.9031	128.906	84.6421	128.906	84.8198	128.906	84.582	128.906	84.7484	128.906	84.541	128.906	84.6907	128.906	84.5182	128.906	84.6469	128.906	84.5106	128.906	84.6156	128.906	84.5142	128.906	84.5938	128.906	84.5247	128.906	84.5779	128.906	84.5381	128.906	84.5647	128.906	84.5518
133.301	85.512	133.301	85.4859	133.301	85.513	133.301	85.4359	133.301	85.4891	133.301	85.3646	133.301	85.4416	133.301	85.2756	133.301	85.3731	133.301	85.1735	133.301	85.2875	133.301	85.0639	133.301	85.1897	133.301	84.9531	133.301	85.0855	133.301	84.8471	133.301	84.981	133.301	84.752	133.301	84.8822	133.301	84.6725	133.301	84.7946	133.301	84.6116	133.301	84.7221	133.301	84.5704	133.301	84.6664	133.301	84.5475	133.301	84.6276	133.301	84.5398	133.301	84.6032	133.301	84.5426	133.301	84.5895	133.301	84.5512	133.301	84.582	133.301	84.5613	133.301	84.5765	133.301	84.57
139.16	85.497	139.16	85.4705	139.16	85.4959	139.16	85.418	139.16	85.4673	139.16	85.3424	139.16	85.4127	139.16	85.2482	139.16	85.3351	139.16	85.1408	139.16	85.2394	139.16	85.0267	139.16	85.1312	139.16	84.9127	139.16	85.0174	139.16	84.8056	139.16	84.9053	139.16	84.7116	139.16	84.802	139.16	84.6353	139.16	84.7133	139.16	84.5794	139.16	84.6432	139.16	84.5439	139.16	84.5936	139.16	84.5267	139.16	84.5632	139.16	84.5237	139.16	84.5489	139.16	84.5296	139.16	84.5457	139.16	84.5389	139.16	84.5482	139.16	84.5471	139.16	84.5513	139.16	84.5515
143.555	85.4838	143.555	85.4481	143.555	85.4908	143.555	85.3854	143.555	85.469	143.555	85.2989	143.555	85.4199	143.555	85.193	143.555	85.3464	143.555	85.0737	143.555	85.2528	143.555	84.9478	143.555	85.1446	143.555	84.8229	143.555	85.0283	143.555	84.7063	143.555	84.911	143.555	84.6046	143.555	84.7998	143.555	84.523	143.555	84.7008	143.555	84.4642	143.555	84.6187	143.555	84.4281	143.555	84.5562	143.555	84.4122	143.555	84.513	143.555	84.4117	143.555	84.4867	143.555	84.4209	143.555	84.473	143.555	84.4341	143.555	84.4665	143.555	84.4468	143.555	84.4622	143.555	84.4563
147.949	85.3734	147.949	85.3407	147.949	85.3771	147.949	85.2803	147.949	85.3524	147.949	85.1947	147.949	85.3011	147.949	85.0884	147.949	85.2268	147.949	84.9671	147.949	85.1341	147.949	84.8378	147.949	85.0289	147.949	84.7082	147.949	84.9176	147.949	84.5864	147.949	84.807	147.949	84.4797	147.949	84.7035	147.949	84.3938	147.949	84.6124	147.949	84.3323	147.949	84.5375	147.949	84.2955	147.949	84.4803	147.949	84.2813	147.949	84.4399	147.949	84.2849	147.949	84.4136	147.949	84.3002	147.949	84.3971	147.949	84.321	147.949	84.3855	147.949	84.3422	147.949	84.3743	147.949	84.3603
153.809	85.1667	153.809	85.1459	153.809	85.1577	153.809	85.0964	153.809	85.1194	153.809	85.0209	153.809	85.0539	153.809	84.9238	153.809	84.9653	153.809	84.8105	153.809	84.859	153.809	84.688	153.809	84.742	153.809	84.564	153.809	84.6224	153.809	84.4466	153.809	84.5085	153.809	84.3435	153.809	84.4078	153.809	84.2607	153.809	84.3263	153.809	84.2022	153.809	84.2672	153.809	84.1685	153.809	84.2308	153.809	84.1572	153.809	84.2141	153.809	84.1633	153.809	84.2121	153.809	84.1799	153.809	84.2184	153.809	84.2	153.809	84.2264	153.809	84.2175	153.809	84.231	153.809	84.2284
159.668	85.1184	159.668	85.0874	159.668	85.1167	159.668	85.0258	159.668	85.0818	159.668	84.9378	159.668	85.0154	159.668	84.8287	159.668	84.9212	159.668	84.7054	159.668	84.8048	159.668	84.576	159.668	84.6741	159.668	84.449	159.668	84.5386	159.668	84.3328	159.668	84.4089	159.668	84.2351	159.668	84.2952	159.668	84.1617	159.668	84.2062	159.668	84.1156	159.668	84.1472	159.668	84.0965	159.668	84.1189	159.668	84.1008	159.668	84.1175	159.668	84.122	159.668	84.1352	159.668	84.1517	159.668	84.1622	159.668	84.1814	159.668	84.189	159.668	84.2036	159.668	84.2076	159.668	84.213
165.527	85.0542	165.527	85.0155	165.527	85.0599	165.527	84.9459	165.527	85.0323	165.527	84.8493	165.527	84.9733	165.527	84.7314	165.527	84.8863	165.527	84.5997	165.527	84.7766	165.527	84.4626	165.527	84.6512	165.527	84.3294	165.527	84.5186	165.527	84.2089	165.527	84.3879	165.527	84.1088	165.527	84.2685	165.527	84.0344	165.527	84.1688	165.527	83.9879	165.527	84.0947	165.527	83.9682	165.527	84.0484	165.527	83.971	165.527	84.0282	165.527	83.9897	165.527	84.0287	165.527	84.0164	165.527	84.0415	165.527	84.0431	165.527	84.058	165.527	84.0633	165.527	84.0702	165.527	84.0727
171.387	84.9411	171.387	84.8983	171.387	84.9476	171.387	84.8207	171.387	84.918	171.387	84.7119	171.387	84.8548	171.387	84.578	171.387	84.7623	171.387	84.4268	171.387	84.6466	171.387	84.2683	171.387	84.5157	171.387	84.1139	171.387	84.3787	171.387	83.9749	171.387	84.2457	171.387	83.8618	171.387	84.1266	171.387	83.7819	171.387	84.0298	171.387	83.7385	171.387	83.9606	171.387	83.7297	171.387	83.9205	171.387	83.7496	171.387	83.9063	171.387	83.7888	171.387	83.9115	171.387	83.8369	171.387	83.9267	171.387	83.8835	171.387	83.9422	171.387	83.9207	171.387	83.9497	171.387	83.9432
177.246	84.7674	177.246	84.738	177.246	84.7606	177.246	84.6734	177.246	84.7189	177.246	84.5763	177.246	84.6451	177.246	84.4513	177.246	84.544	177.246	84.3054	177.246	84.422	177.246	84.147	177.246	84.287	177.246	83.9865	177.246	84.1481	177.246	83.8351	177.246	84.0151	177.246	83.7036	177.246	83.8969	177.246	83.6011	177.246	83.801	177.246	83.5333	177.246	83.7319	177.246	83.5015	177.246	83.6902	177.246	83.502	177.246	83.6725	177.246	83.5272	177.246	83.6721	177.246	83.5668	177.246	83.6804	177.246	83.6103	177.246	83.6883	177.246	83.6486	177.246	83.6883	177.246	83.6755
183.105	84.5722	183.105	84.5537	183.105	84.5538	183.105	84.4996	183.105	84.4989	183.105	84.4138	183.105	84.4104	183.105	84.3019	183.105	84.2936	183.105	84.1716	183.105	84.156	183.105	84.0321	183.105	84.0075	183.105	83.894	183.105	83.8595	183.105	83.7679	183.105	83.7245	183.105	83.6637	183.105	83.6138	183.105	83.5887	183.105	83.5362	183.105	83.5466	183.105	83.4959	183.105	83.5365	183.105	83.4915	183.105	83.5531	183.105	83.5164	183.105	83.5877	183.105	83.5602	183.105	83.6297	183.105	83.6108	183.105	83.6683	183.105	83.6569	183.105	83.6946	183.105	83.6893	183.105	83.7024
188.965	84.5463	188.965	84.5139	188.965	84.536	188.965	84.4414	188.965	84.4827	188.965	84.3336	188.965	84.3884	188.965	84.1976	188.965	84.2579	188.965	84.0426	188.965	84.0986	188.965	83.8799	188.965	83.921	188.965	83.7218	188.965	83.7383	188.965	83.581	188.965	83.5655	188.965	83.4687	188.965	83.4179	188.965	83.3927	188.965	83.3087	188.965	83.3557	188.965	83.2461	188.965	83.3552	188.965	83.2313	188.965	83.3834	188.965	83.2581	188.965	83.4286	188.965	83.3141	188.965	83.4777	188.965	83.3839	188.965	83.5181	188.965	83.452	188.965	83.5397	188.965	83.5056	188.965	83.536
196.289	84.4802	196.289	84.4444	196.289	84.471	196.289	84.3656	196.289	84.4163	196.289	84.2478	196.289	84.3178	196.289	84.097	196.289	84.1794	196.289	83.9214	196.289	84.0072	196.289	83.7313	196.289	83.8106	196.289	83.5392	196.289	83.602	196.289	83.3589	196.289	83.3966	196.289	83.2038	196.289	83.2108	196.289	83.0853	196.289	83.0604	196.289	83.0098	196.289	82.9568	196.289	82.9778	196.289	82.9047	196.289	82.9827	196.289	82.9003	196.289	83.0129	196.289	82.9322	196.289	83.0538	196.289	82.9847	196.289	83.0911	196.289	83.041	196.289	83.1129	196.289	83.0867	196.289	83.1121
203.613	84.2666	203.613	84.2146	203.613	84.2731	203.613	84.119	203.613	84.2343	203.613	83.9842	203.613	84.1526	203.613	83.8173	203.613	84.0324	203.613	83.6279	203.613	83.8803	203.613	83.4284	203.613	83.7051	203.613	83.2329	203.613	83.5179	203.613	83.0565	203.613	83.3316	203.613	82.9126	203.613	83.16	203.613	82.8107	203.613	83.0163	203.613	82.755	203.613	82.9106	203.613	82.7427	203.613	82.8476	203.613	82.765	203.613	82.8257	203.613	82.8092	203.613	82.8366	203.613	82.861	203.613	82.8675	203.613	82.907	203.613	82.9043	203.613	82.9374	203.613	82.9338	203.613	82.9464
210.938	84.236	210.938	84.2012	210.938	84.2246	210.938	84.1214	210.938	84.1679	210.938	83.9997	210.938	84.0687	210.938	83.8416	210.938	83.9319	210.938	83.655	210.938	83.7649	210.938	83.4508	210.938	83.5775	210.938	83.2423	210.938	83.3821	210.938	83.0452	210.938	83.193	210.938	82.8752	210.938	83.0251	210.938	82.7462	210.938	82.8914	210.938	82.6667	210.938	82.8008	210.938	82.6384	210.938	82.7553	210.938	82.6543	210.938	82.7502	210.938	82.7012	210.938	82.7742	210.938	82.7623	210.938	82.8133	210.938	82.8212	210.938	82.8525	210.938	82.8645	210.938	82.8792	210.938	82.8845
218.262	84.0311	218.262	83.9929	218.262	84.0228	218.262	83.9105	218.262	83.9682	218.262	83.7884	218.262	83.8697	218.262	83.6332	218.262	83.7329	218.262	83.4543	218.262	83.5657	218.262	83.2635	218.262	83.3795	218.262	83.0751	218.262	83.1879	218.262	82.9045	218.262	83.0068	218.262	82.7668	218.262	82.8522	218.262	82.6736	218.262	82.7384	218.262	82.631	218.262	82.6746	218.262	82.6374	218.262	82.6623	218.262	82.6841	218.262	82.6944	218.262	82.7562	218.262	82.7569	218.262	82.8361	218.262	82.8319	218.262	82.9068	218.262	82.9015	218.262	82.9541	218.262	82.9506	218.262	82.9695
225.586	84.0652	225.586	84.0344	225.586	84.0443	225.586	83.9545	225.586	83.9714	225.586	83.8301	225.586	83.8491	225.586	83.6681	225.586	83.6832	225.586	83.4777	225.586	83.4829	225.586	83.271	225.586	83.2616	225.586	83.0632	225.586	83.0367	225.586	82.8718	225.586	82.8284	225.586	82.7149	225.586	82.6579	225.586	82.608	225.586	82.5432	225.586	82.56	225.586	82.4951	225.586	82.5707	225.586	82.5129	225.586	82.6301	225.586	82.5846	225.586	82.7209	225.586	82.6892	225.586	82.8216	225.586	82.8025	225.586	82.9114	225.586	82.9015	225.586	82.9725	225.586	82.9686	225.586	82.9932
232.91	84.1445	232.91	84.0983	232.91	84.1347	232.91	83.9997	232.91	84.0673	232.91	83.8544	232.91	83.9433	232.91	83.67	232.91	83.7663	232.91	83.4563	232.91	83.5435	232.91	83.2252	232.91	83.2865	232.91	82.9915	232.91	83.0116	232.91	82.7719	232.91	82.7405	232.91	82.5841	232.91	82.4985	232.91	82.4442	232.91	82.3112	232.91	82.3629	232.91	82.1984	232.91	82.3423	232.91	82.1677	232.91	82.3747	232.91	82.2112	232.91	82.444	232.91	82.3069	232.91	82.5285	232.91	82.4257	232.91	82.6053	232.91	82.5383	232.91	82.6544	232.91	82.6217	232.91	82.6618
241.699	83.9833	241.699	83.9287	241.699	83.9867	241.699	83.8262	241.699	83.938	241.699	83.6813	241.699	83.838	241.699	83.5021	241.699	83.6901	241.699	83.2987	241.699	83.4995	241.699	83.0833	241.699	83.2745	241.699	82.8698	241.699	83.0269	241.699	82.6731	241.699	82.7726	241.699	82.5073	241.699	82.5318	241.699	82.3846	241.699	82.327	241.699	82.3119	241.699	82.1788	241.699	82.289	241.699	82.1005	241.699	82.3082	241.699	82.093	241.699	82.3547	241.699	82.1436	241.699	82.41	241.699	82.2295	241.699	82.4552	241.699	82.325	241.699	82.4749	241.699	82.407	241.699	82.4594
250.488	84.0994	250.488	84.0453	250.488	84.0905	250.488	83.9302	250.488	84.0196	250.488	83.7595	250.488	83.8905	250.488	83.5421	250.488	83.71	250.488	83.291	250.488	83.4876	250.488	83.0235	250.488	83.2361	250.488	82.7606	250.488	82.9712	250.488	82.5249	250.488	82.7112	250.488	82.3373	250.488	82.4764	250.488	82.2124	250.488	82.2866	250.488	82.155	250.488	82.1582	250.488	82.1589	250.488	82.099	250.488	82.2085	250.488	82.1057	250.488	82.2833	250.488	82.1632	250.488	82.3615	250.488	82.249	250.488	82.4243	250.488	82.3388	250.488	82.4576	250.488	82.4118	250.488	82.4537
259.277	84.5253	259.277	84.4721	259.277	84.513	259.277	84.3551	259.277	84.4359	259.277	84.1786	259.277	84.2974	259.277	83.9501	259.277	84.1038	259.277	83.6806	259.277	83.8645	259.277	83.3854	259.277	83.5924	259.277	83.0843	259.277	83.3042	259.277	82.8015	259.277	83.0201	259.277	82.5623	259.277	82.7622	259.277	82.3887	259.277	82.5525	259.277	82.2933	259.277	82.408	259.277	82.2747	259.277	82.3368	259.277	82.3178	259.277	82.3342	259.277	82.3985	259.277	82.384	259.277	82.4905	259.277	82.4621	259.277	82.5703	259.277	82.5429	259.277	82.621	259.277	82.6048	259.277	82.633
268.066	84.5414	268.066	84.4871	268.066	84.5291	268.066	84.3708	268.066	84.4486	268.066	84.2001	268.066	84.301	268.066	83.9862	268.066	84.0911	268.066	83.7436	268.066	83.8277	268.066	83.489	268.066	83.5256	268.066	83.2398	268.066	83.2057	268.066	83.013	268.066	82.896	268.066	82.824	268.066	82.6281	268.066	82.6854	268.066	82.4328	268.066	82.6061	268.066	82.3314	268.066	82.5885	268.066	82.3282	268.066	82.6263	268.066	82.4084	268.066	82.7041	268.066	82.5416	268.066	82.7992	268.066	82.6915	268.066	82.8872	268.066	82.825	268.066	82.9459	268.066	82.9183	268.066	82.959
276.855	84.8999	276.855	84.8271	276.855	84.923	276.855	84.7025	276.855	84.8966	276.855	84.5236	276.855	84.8187	276.855	84.2896	276.855	84.6857	276.855	84.0057	276.855	84.4945	276.855	83.687	276.855	84.2449	276.855	83.3605	276.855	83.9435	276.855	83.0627	276.855	83.607	276.855	82.8316	276.855	83.264	276.855	82.6938	276.855	82.9522	276.855	82.6551	276.855	82.7106	276.855	82.7	276.855	82.5681	276.855	82.7997	276.855	82.5339	276.855	82.9214	276.855	82.5948	276.855	83.0342	276.855	82.7198	276.855	83.1124	276.855	82.8698	276.855	83.1378	276.855	83.0067	276.855	83.1016
287.109	84.8579	287.109	84.7802	287.109	84.8642	287.109	84.6335	287.109	84.8022	287.109	84.4254	287.109	84.6799	287.109	84.169	287.109	84.5095	287.109	83.8821	287.109	84.306	287.109	83.5866	287.109	84.0846	287.109	83.3068	287.109	83.8588	287.109	83.0679	287.109	83.6402	287.109	82.8923	287.109	83.4404	287.109	82.7949	287.109	83.2745	287.109	82.7787	287.109	83.1598	287.109	82.8328	287.109	83.1102	287.109	82.9361	287.109	83.1265	287.109	83.0637	287.109	83.1928	287.109	83.1921	287.109	83.2808	287.109	83.3027	287.109	83.3611	287.109	83.3815	287.109	83.4113	287.109	83.4191
297.363	84.921	297.363	84.9082	297.363	84.8569	297.363	84.8217	297.363	84.7142	297.363	84.6659	297.363	84.4945	297.363	84.4464	297.363	84.2041	297.363	84.1709	297.363	83.857	297.363	83.8507	297.363	83.4771	297.363	83.5039	297.363	83.0987	297.363	83.1579	297.363	82.7631	297.363	82.8515	297.363	82.5106	297.363	82.6301	297.363	82.3703	297.363	82.5319	297.363	82.3517	297.363	82.5686	297.363	82.4436	297.363	82.7168	297.363	82.6187	297.363	82.9273	297.363	82.8403	297.363	83.1448	297.363	83.0685	297.363	83.3243	297.363	83.2663	297.363	83.4358	297.363	83.4045	297.363	83.4636
307.617	84.5256	307.617	84.4356	307.617	84.5497	307.617	84.2836	307.617	84.5064	307.617	84.0759	307.617	84.396	307.617	83.8222	307.617	84.2208	307.617	83.5365	307.617	83.9848	307.617	83.2378	307.617	83.695	307.617	82.9484	307.617	83.3626	307.617	82.6909	307.617	83.006	307.617	82.483	307.617	82.6524	307.617	82.3354	307.617	82.3379	307.617	82.2522	307.617	82.1011	307.617	82.2323	307.617	81.9715	307.617	82.2691	307.617	81.9577	307.617	82.3469	307.617	82.0412	307.617	82.4411	307.617	82.1833	307.617	82.5223	307.617	82.3388	307.617	82.5634	307.617	82.4687	307.617	82.5471
319.336	84.1711	319.336	84.0974	319.336	84.1523	319.336	83.9333	319.336	84.043	319.336	83.6845	319.336	83.8492	319.336	83.3618	319.336	83.5814	319.336	82.9826	319.336	83.2553	319.336	82.5734	319.336	82.8927	319.336	82.1719	319.336	82.5222	319.336	81.8246	319.336	82.1784	319.336	81.5765	319.336	81.8984	319.336	81.4547	319.336	81.7138	319.336	81.4574	319.336	81.6411	319.336	81.5571	319.336	81.6738	319.336	81.7148	319.336	81.7854	319.336	81.8937	319.336	81.9381	319.336	82.0645	319.336	82.0947	319.336	82.2048	319.336	82.2251	319.336	82.2983	319.336	82.3088	319.336	82.3343
329.59	83.9872	329.59	83.8891	329.59	83.999	329.59	83.7076	329.59	83.9232	329.59	83.448	329.59	83.7608	329.59	83.1201	329.59	83.5157	329.59	82.7407	329.59	83.1964	329.59	82.3376	329.59	82.8179	329.59	81.9514	329.59	82.404	329.59	81.6332	329.59	81.9889	329.59	81.4329	329.59	81.6179	329.59	81.3806	329.59	81.3414	329.59	81.4714	329.59	81.2028	329.59	81.6672	329.59	81.2204	329.59	81.9136	329.59	81.3773	329.59	82.1586	329.59	81.6267	329.59	82.3624	329.59	81.9103	329.59	82.4985	329.59	82.1756	329.59	82.5511	329.59	82.3841	329.59	82.5128
341.309	84.1816	341.309	84.1092	341.309	84.1566	341.309	83.9405	341.309	84.0355	341.309	83.6789	341.309	83.8234	341.309	83.3303	341.309	83.5292	341.309	82.9047	341.309	83.1671	341.309	82.4199	341.309	82.7568	341.309	81.9059	341.309	82.3259	341.309	81.4081	341.309	81.9117	341.309	80.9869	341.309	81.5606	341.309	80.7057	341.309	81.3198	341.309	80.6089	341.309	81.2208	341.309	80.6983	341.309	81.2634	341.309	80.9299	341.309	81.4135	341.309	81.2344	341.309	81.6178	341.309	81.5434	341.309	81.8225	341.309	81.8054	341.309	81.985	341.309	81.9892	341.309	82.0765	341.309	82.0803
353.027	84.321	353.027	84.219	353.027	84.3336	353.027	84.0293	353.027	84.2528	353.027	83.7538	353.027	84.0723	353.027	83.3985	353.027	83.7858	353.027	82.9771	353.027	83.3912	353.027	82.5163	353.027	82.8973	353.027	82.0582	353.027	82.3306	353.027	81.6592	353.027	81.7414	353.027	81.3783	353.027	81.2038	353.027	81.2554	353.027	80.8048	353.027	81.2926	353.027	80.6151	353.027	81.4535	353.027	80.6562	353.027	81.6809	353.027	80.8874	353.027	81.9191	353.027	81.2283	353.027	82.1249	353.027	81.5935	353.027	82.2685	353.027	81.9165	353.027	82.3298	353.027	82.1565	353.027	82.295
366.211	85.0219	366.211	84.8796	366.211	85.0623	366.211	84.6352	366.211	85.0007	366.211	84.2888	366.211	84.8373	366.211	83.8409	366.211	84.5719	366.211	83.2969	366.211	84.2042	366.211	82.6748	366.211	83.7363	366.211	82.0188	366.211	83.1793	366.211	81.4118	366.211	82.5657	366.211	80.9688	366.211	81.9622	366.211	80.792	366.211	81.4701	366.211	80.9052	366.211	81.194	366.211	81.2371	366.211	81.1824	366.211	81.6717	366.211	81.3949	366.211	82.1054	366.211	81.7348	366.211	82.4676	366.211	82.1047	366.211	82.7177	366.211	82.4352	366.211	82.8371	366.211	82.6833	366.211	82.8229
379.395	85.5089	379.395	85.4437	379.395	85.4855	379.395	85.2859	379.395	85.3746	379.395	85.0272	379.395	85.1749	379.395	84.6566	379.395	84.8851	379.395	84.1639	379.395	84.5052	379.395	83.5466	379.395	84.0389	379.395	82.822	379.395	83.4966	379.395	82.0443	379.395	82.9012	379.395	81.324	379.395	82.2987	379.395	80.8204	379.395	81.7686	379.395	80.6709	379.395	81.4196	379.395	80.8869	379.395	81.3431	379.395	81.3434	379.395	81.545	379.395	81.8772	379.395	81.9293	379.395	82.367	379.395	82.3607	379.395	82.7454	379.395	82.7291	379.395	82.9801	379.395	82.9705	379.395	83.0566
392.578	85.3087	392.578	85.2519	392.578	85.2853	392.578	85.1131	392.578	85.1845	392.578	84.8917	392.578	85.0099	392.578	84.5863	392.578	84.7635	392.578	84.1938	392.578	84.4452	392.578	83.7105	392.578	84.0523	392.578	83.1401	392.578	83.5835	392.578	82.5064	392.578	83.0464	392.578	81.8714	392.578	82.4703	392.578	81.343	392.578	81.9212	392.578	81.0499	392.578	81.5054	392.578	81.0695	392.578	81.3353	392.578	81.3676	392.578	81.4565	392.578	81.8223	392.578	81.8038	392.578	82.298	392.578	82.2423	392.578	82.6929	392.578	82.6426	392.578	82.9452	392.578	82.9177	392.578	83.0232
405.762	85.0982	405.762	85.0168	405.762	85.0813	405.762	84.8344	405.762	84.9681	405.762	84.5499	405.762	84.7599	405.762	84.1644	405.762	84.4568	405.762	83.6849	405.762	84.0588	405.762	83.1274	405.762	83.5676	405.762	82.5212	405.762	82.9918	405.762	81.9149	405.762	82.3552	405.762	81.3797	405.762	81.7071	405.762	81.0023	405.762	81.1296	405.762	80.8545	405.762	80.7274	405.762	80.9497	405.762	80.5861	405.762	81.2269	405.762	80.7174	405.762	81.5832	405.762	81.0454	405.762	81.9207	405.762	81.4527	405.762	82.1713	405.762	81.8346	405.762	82.2969	405.762	82.1226	405.762	82.2812
420.41	84.8158	420.41	84.758	420.41	84.7919	420.41	84.6094	420.41	84.6925	420.41	84.3573	420.41	84.5197	420.41	83.9868	420.41	84.2703	420.41	83.4817	420.41	83.9351	420.41	82.8316	420.41	83.5004	420.41	82.0472	420.41	82.952	420.41	81.1866	420.41	82.2863	420.41	80.3836	420.41	81.5297	420.41	79.8396	420.41	80.7683	420.41	79.7202	420.41	80.1672	420.41	80.0193	420.41	79.9206	420.41	80.5727	420.41	80.1078	420.41	81.1915	420.41	80.6104	420.41	81.741	420.41	81.219	420.41	82.1428	420.41	81.7668	420.41	82.3559	420.41	82.1617	420.41	82.3628
435.059	83.8923	435.059	83.8411	435.059	83.8779	435.059	83.7278	435.059	83.7914	435.059	83.5483	435.059	83.6273	435.059	83.2882	435.059	83.3834	435.059	82.9226	435.059	83.0605	435.059	82.4187	435.059	82.6605	435.059	81.745	435.059	82.1849	435.059	80.8927	435.059	81.639	435.059	79.917	435.059	81.0411	435.059	78.9941	435.059	80.4379	435.059	78.4207	435.059	79.917	435.059	78.4167	435.059	79.5953	435.059	78.8898	435.059	79.5588	435.059	79.5514	435.059	79.7905	435.059	80.1705	435.059	80.1725	435.059	80.6351	435.059	80.5613	435.059	80.9053	435.059	80.849	435.059	80.9734
451.172	84.1154	451.172	83.9928	451.172	84.1141	451.172	83.7567	451.172	83.9846	451.172	83.423	451.172	83.7295	451.172	83.0092	451.172	83.358	451.172	82.5303	451.172	82.8833	451.172	81.992	451.172	82.3205	451.172	81.3898	451.172	81.6835	451.172	80.7158	451.172	80.9856	451.172	79.9816	451.172	80.2479	451.172	79.2533	451.172	79.5171	451.172	78.6822	451.172	78.8911	451.172	78.4663	451.172	78.5228	451.172	78.6961	451.172	78.5467	451.172	79.2475	451.172	78.9519	451.172	79.8876	451.172	79.5642	451.172	80.4252	451.172	80.1697	451.172	80.7514	451.172	80.6144	451.172	80.8176
465.82	85.0886	465.82	84.9891	465.82	85.0624	465.82	84.7685	465.82	84.9046	465.82	84.4279	465.82	84.6105	465.82	83.9654	465.82	84.1788	465.82	83.3784	465.82	83.6132	465.82	82.6693	465.82	82.9236	465.82	81.8525	465.82	82.1293	465.82	80.9637	465.82	81.2649	465.82	80.0702	465.82	80.3879	465.82	79.2715	465.82	79.5803	465.82	78.6725	465.82	78.9327	465.82	78.3312	465.82	78.5083	465.82	78.2302	465.82	78.3151	465.82	78.3039	465.82	78.3133	465.82	78.4768	465.82	78.4397	465.82	78.6731	465.82	78.622	465.82	78.8191	465.82	78.7839	465.82	78.8605
483.398	85.5728	483.398	85.5345	483.398	85.5157	483.398	85.3999	483.398	85.3649	483.398	85.1676	483.398	85.12	483.398	84.8315	483.398	84.7764	483.398	84.3754	483.398	84.3249	483.398	83.7732	483.398	83.7554	483.398	82.9963	483.398	83.0638	483.398	82.0319	483.398	82.2639	483.398	80.9166	483.398	81.4066	483.398	79.7958	483.398	80.6037	483.398	78.9766	483.398	80.0273	483.398	78.798	483.398	79.8319	483.398	79.2683	483.398	80.0254	483.398	80.0371	483.398	80.455	483.398	80.7664	483.398	80.9327	483.398	81.2972	483.398	81.3315	483.398	81.5977	483.398	81.5912	483.398	81.6868
499.512	85.7748	499.512	85.6876	499.512	85.7562	499.512	85.4909	499.512	85.6359	499.512	85.1845	499.512	85.4158	499.512	84.7727	499.512	85.092	499.512	84.2642	499.512	84.6506	499.512	83.6714	499.512	84.0675	499.512	83.0119	499.512	83.3123	499.512	82.3164	499.512	82.3652	499.512	81.6395	499.512	81.2481	499.512	81.0619	499.512	80.0811	499.512	80.6687	499.512	79.135	499.512	80.5096	499.512	78.7496	499.512	80.5778	499.512	79.0313	499.512	80.8236	499.512	79.7353	499.512	81.1729	499.512	80.535	499.512	81.5306	499.512	81.2156	499.512	81.7902	499.512	81.6693	499.512	81.8565
517.09	85.8906	517.09	85.8435	517.09	85.8723	517.09	85.7234	517.09	85.786	517.09	85.512	517.09	85.6211	517.09	85.1831	517.09	85.3626	517.09	84.7031	517.09	84.9938	517.09	84.0326	517.09	84.4951	517.09	83.1324	517.09	83.8434	517.09	81.9905	517.09	83.0153	517.09	80.6943	517.09	82.0093	517.09	79.5592	517.09	80.9057	517.09	79.1177	517.09	79.9683	517.09	79.5883	517.09	79.6237	517.09	80.5594	517.09	80.0511	517.09	81.5498	517.09	80.9186	517.09	82.3343	517.09	81.8035	517.09	82.8564	517.09	82.4946	517.09	83.1216	517.09	82.9406	517.09	83.1471
536.133	84.569	536.133	84.469	536.133	84.6348	536.133	84.3502	536.133	84.6434	536.133	84.2101	536.133	84.5719	536.133	84.0232	536.133	84.3973	536.133	83.7473	536.133	84.0942	536.133	83.3326	536.133	83.633	536.133	82.7266	536.133	82.9803	536.133	81.8746	536.133	82.1011	536.133	80.742	536.133	80.9663	536.133	79.4042	536.133	79.5892	536.133	78.2497	536.133	78.1432	536.133	77.998	536.133	77.1702	536.133	78.8433	536.133	77.3499	536.133	80.1161	536.133	78.5175	536.133	81.238	536.133	79.9137	536.133	81.9994	536.133	81.0854	536.133	82.3595	536.133	81.8964	536.133	82.3226
555.176	84.4469	555.176	84.3969	555.176	84.4414	555.176	84.2859	555.176	84.3883	555.176	84.1095	555.176	84.2909	555.176	83.8552	555.176	84.1384	555.176	83.4917	555.176	83.9003	555.176	82.9653	555.176	83.5287	555.176	82.2107	555.176	82.9644	555.176	81.173	555.176	82.1463	555.176	79.8479	555.176	81.0231	555.176	78.3628	555.176	79.5892	555.176	77.1006	555.176	77.9872	555.176	76.6084	555.176	76.7092	555.176	77.0081	555.176	76.481	555.176	77.8527	555.176	77.298	555.176	78.7153	555.176	78.412	555.176	79.4014	555.176	79.3079	555.176	79.8411	555.176	79.8352	555.176	79.9987
574.219	83.3186	574.219	83.2143	574.219	83.342	574.219	83.0586	574.219	83.2675	574.219	82.8778	574.219	83.0987	574.219	82.6782	574.219	82.8589	574.219	82.4341	574.219	82.5751	574.219	82.0867	574.219	82.2523	574.219	81.5536	574.219	81.8508	574.219	80.7428	574.219	81.2842	574.219	79.5664	574.219	80.4411	574.219	77.9788	574.219	79.2201	574.219	76.1517	574.219	77.5948	574.219	74.9104	574.219	75.7999	574.219	75.3188	574.219	74.656	574.219	76.7661	574.219	74.9962	574.219	78.1019	574.219	76.2623	574.219	78.9287	574.219	77.5431	574.219	79.2297	574.219	78.4992	574.219	79.0693
594.727	82.8881	594.727	82.773	594.727	82.891	594.727	82.5454	594.727	82.8068	594.727	82.23	594.727	82.6701	594.727	81.8627	594.727	82.505	594.727	81.467	594.727	82.3057	594.727	81.0389	594.727	82.0277	594.727	80.5474	594.727	81.5945	594.727	79.9502	594.727	80.9206	594.727	79.2113	594.727	79.9395	594.727	78.3212	594.727	78.6353	594.727	77.341	594.727	77.1012	594.727	76.4962	594.727	75.6785	594.727	76.204	594.727	75.0626	594.727	76.705	594.727	75.703	594.727	77.6869	594.727	77.0508	594.727	78.6563	594.727	78.3355	594.727	79.3101	594.727	79.1876	594.727	79.5088
615.234	83.4336	615.234	83.3875	615.234	83.4403	615.234	83.2934	615.234	83.4151	615.234	83.1443	615.234	83.3629	615.234	82.9332	615.234	83.2822	615.234	82.6407	615.234	83.1583	615.234	82.2137	615.234	82.9644	615.234	81.5541	615.234	82.6641	615.234	80.5304	615.234	82.2052	615.234	79.0098	615.234	81.5096	615.234	76.9412	615.234	80.4842	615.234	74.6724	615.234	79.0759	615.234	73.5745	615.234	77.4093	615.234	74.559	615.234	76.0135	615.234	76.223	615.234	75.6446	615.234	77.5443	615.234	76.2771	615.234	78.3417	615.234	77.2205	615.234	78.6512	615.234	78.0267	615.234	78.5283
637.207	84.0633	637.207	83.9392	637.207	84.1653	637.207	83.8475	637.207	84.1947	637.207	83.8095	637.207	84.1309	637.207	83.7986	637.207	83.9887	637.207	83.7619	637.207	83.8072	637.207	83.6453	637.207	83.6207	637.207	83.3871	637.207	83.4201	637.207	82.8969	637.207	83.1286	637.207	82.0564	637.207	82.6123	637.207	80.7594	637.207	81.7217	637.207	79.0221	637.207	80.3546	637.207	77.3122	637.207	78.6144	637.207	76.895	637.207	77.2218	637.207	78.1958	637.207	77.3715	637.207	79.906	637.207	78.7758	637.207	81.1709	637.207	80.2544	637.207	81.8077	637.207	81.3081	637.207	81.8376
659.18	85.2698	659.18	85.0589	659.18	85.2967	659.18	84.7071	659.18	85.1604	659.18	84.313	659.18	84.9362	659.18	83.9891	659.18	84.7193	659.18	83.7855	659.18	84.5677	659.18	83.636	659.18	84.4542	659.18	83.3884	659.18	84.2791	659.18	82.8767	659.18	83.9271	659.18	81.9716	659.18	83.3059	659.18	80.6247	659.18	82.3482	659.18	78.9891	659.18	81.0138	659.18	77.6497	659.18	79.3675	659.18	77.4188	659.18	77.8669	659.18	78.2374	659.18	77.5113	659.18	79.3495	659.18	78.4791	659.18	80.2757	659.18	79.7311	659.18	80.8389	659.18	80.6057	659.18	80.966
682.617	85.8721	682.617	85.7279	682.617	85.7766	682.617	85.3693	682.617	85.4533	682.617	84.8624	682.617	84.9544	682.617	84.3117	682.617	84.3759	682.617	83.825	682.617	83.8384	682.617	83.4474	682.617	83.4335	682.617	83.1153	682.617	83.1626	682.617	82.6722	682.617	82.9227	682.617	81.9166	682.617	82.5543	682.617	80.6572	682.617	81.9025	682.617	78.846	682.617	80.8727	682.617	77.0484	682.617	79.5374	682.617	76.8476	682.617	78.3527	682.617	78.3932	682.617	78.1059	682.617	80.1086	682.617	78.9413	682.617	81.2898	682.617	80.1604	682.617	81.8395	682.617	81.1921	682.617	81.7874
707.52	86.0191	707.52	85.9575	707.52	85.9185	707.52	85.7168	707.52	85.6701	707.52	85.3076	707.52	85.2837	707.52	84.7938	707.52	84.7951	707.52	84.2794	707.52	84.2942	707.52	83.8337	707.52	83.8926	707.52	83.4106	707.52	83.6156	707.52	82.8603	707.52	83.3266	707.52	82.0098	707.52	82.7762	707.52	80.7047	707.52	81.7076	707.52	78.8001	707.52	79.9325	707.52	76.325	707.52	77.4874	707.52	74.6106	707.52	75.4058	707.52	76.0033	707.52	75.9917	707.52	78.5843	707.52	78.2912	707.52	80.5342	707.52	80.2754	707.52	81.6347	707.52	81.4934	707.52	81.9425
732.422	85.1647	732.422	84.9099	732.422	85.2792	732.422	84.5747	732.422	85.1995	732.422	84.2055	732.422	84.905	732.422	83.8435	732.422	84.4227	732.422	83.5443	732.422	83.8335	732.422	83.3462	732.422	83.2696	732.422	83.1861	732.422	82.8637	732.422	82.8728	732.422	82.6262	732.422	82.1661	732.422	82.3862	732.422	80.871	732.422	81.8869	732.422	78.9057	732.422	80.8893	732.422	76.506	732.422	79.2326	732.422	74.9005	732.422	77.0905	732.422	75.569	732.422	75.719	732.422	77.2877	732.422	76.4419	732.422	78.6661	732.422	77.956	732.422	79.4107	732.422	79.0593	732.422	79.5386
757.324	83.8667	757.324	83.615	757.324	83.8416	757.324	83.1203	757.324	83.5546	757.324	82.467	757.324	83.0741	757.324	81.8012	757.324	82.5098	757.324	81.3021	757.324	81.9666	757.324	81.0715	757.324	81.4797	757.324	81.0408	757.324	80.9991	757.324	81.0067	757.324	80.4573	757.324	80.7095	757.324	79.8266	757.324	79.8849	757.324	79.0756	757.324	78.3284	757.324	78.0973	757.324	76.0824	757.324	76.7919	757.324	74.2097	757.324	75.4034	757.324	74.7824	757.324	74.869	757.324	76.7221	757.324	75.7366	757.324	78.1918	757.324	77.1068	757.324	78.8494	757.324	78.2019	757.324	78.8092
785.156	82.1471	785.156	81.8843	785.156	82.0373	785.156	81.2774	785.156	81.569	785.156	80.4139	785.156	80.7863	785.156	79.4635	785.156	79.7721	785.156	78.6823	785.156	78.6962	785.156	78.2681	785.156	77.8504	785.156	78.1127	785.156	77.4953	785.156	77.8651	785.156	77.5384	785.156	77.2069	785.156	77.5632	785.156	75.9398	785.156	77.1746	785.156	74.0152	785.156	76.1379	785.156	71.9526	785.156	74.3688	785.156	71.4303	785.156	72.2979	785.156	72.8789	785.156	71.9598	785.156	74.7884	785.156	74.0576	785.156	76.4313	785.156	76.2384	785.156	77.5536	785.156	77.5605	785.156	77.9716
811.523	81.4807	811.523	81.2759	811.523	81.5512	811.523	80.8779	811.523	81.4584	811.523	80.1942	811.523	81.112	811.523	79.2154	811.523	80.4362	811.523	78.1574	811.523	79.4445	811.523	77.4799	811.523	78.2877	811.523	77.4568	811.523	77.2232	811.523	77.7561	811.523	76.4596	811.523	77.8248	811.523	75.9887	811.523	77.2731	811.523	75.5209	811.523	75.826	811.523	74.5727	811.523	73.1925	811.523	72.7121	811.523	69.5128	811.523	70.0679	811.523	68.6498	811.523	68.9637	811.523	71.6358	811.523	71.1745	811.523	74.0066	811.523	73.6815	811.523	75.304	811.523	75.2072	811.523	75.7096
840.82	83.1263	840.82	82.7382	840.82	83.331	840.82	82.1847	840.82	83.3028	840.82	81.4085	840.82	83.0016	840.82	80.3347	840.82	82.4079	840.82	79.048	840.82	81.5491	840.82	77.9659	840.82	80.539	840.82	77.6103	840.82	79.5798	840.82	77.8748	840.82	78.8547	840.82	78.08	840.82	78.3697	840.82	77.6341	840.82	77.9182	840.82	76.1771	840.82	77.0629	840.82	73.5523	840.82	75.0698	840.82	70.7232	840.82	70.908	840.82	71.3383	840.82	67.412	840.82	73.9697	840.82	72.3528	840.82	75.8662	840.82	75.6998	840.82	76.9248	840.82	77.1037	840.82	77.3652
870.117	84.3081	870.117	84.144	870.117	84.1266	870.117	83.6528	870.117	83.6756	870.117	82.8792	870.117	83.0882	870.117	81.7787	870.117	82.4659	870.117	80.2601	870.117	81.8179	870.117	78.5285	870.117	81.0783	870.117	77.4075	870.117	80.193	870.117	77.3667	870.117	79.2192	870.117	77.6438	870.117	78.3353	870.117	77.6324	870.117	77.6252	870.117	77.2729	870.117	76.7881	870.117	76.5213	870.117	75.1658	870.117	75.1981	870.117	71.8852	870.117	73.5972	870.117	67.6369	870.117	73.4418	870.117	70.584	870.117	75.0087	870.117	74.2531	870.117	76.2909	870.117	76.0288	870.117	76.624
900.879	84.6602	900.879	84.5584	900.879	84.6082	900.879	84.2414	900.879	84.3536	900.879	83.6161	900.879	83.7832	900.879	82.6683	900.879	82.8533	900.879	81.5037	900.879	81.6978	900.879	80.3029	900.879	80.5984	900.879	79.2778	900.879	79.7808	900.879	78.6415	900.879	79.3198	900.879	78.3412	900.879	79.2982	900.879	77.9231	900.879	79.5723	900.879	76.8949	900.879	79.4718	900.879	74.83	900.879	78.2174	900.879	71.3247	900.879	75.1814	900.879	68.7581	900.879	70.0662	900.879	71.8713	900.879	68.6343	900.879	74.8265	900.879	72.7815	900.879	76.2734	900.879	75.4071	900.879	76.4714
933.105	86.3931	933.105	86.2254	933.105	86.3727	933.105	85.9302	933.105	86.1479	933.105	85.5028	933.105	85.7371	933.105	84.8187	933.105	85.0913	933.105	83.7381	933.105	84.1092	933.105	82.3143	933.105	82.8403	933.105	81.0168	933.105	81.6511	933.105	80.4944	933.105	80.8855	933.105	80.5567	933.105	80.3799	933.105	80.3025	933.105	79.9909	933.105	79.1518	933.105	79.824	933.105	77.2766	933.105	79.4229	933.105	75.8839	933.105	77.9543	933.105	75.8906	933.105	75.1587	933.105	76.6673	933.105	73.5213	933.105	77.6375	933.105	75.6543	933.105	78.3936	933.105	77.7136	933.105	78.5381
965.332	87.3093	965.332	86.9439	965.332	87.3641	965.332	86.329	965.332	87.075	965.332	85.5269	965.332	86.4573	965.332	84.5502	965.332	85.5715	965.332	83.3524	965.332	84.4721	965.332	81.9377	965.332	83.1751	965.332	80.524	965.332	81.7465	965.332	79.5242	965.332	80.4956	965.332	79.01	965.332	79.907	965.332	78.465	965.332	79.9178	965.332	77.3897	965.332	79.7599	965.332	75.5914	965.332	78.6537	965.332	73.6507	965.332	75.9956	965.332	74.2437	965.332	72.2847	965.332	77.055	965.332	73.7233	965.332	79.3297	965.332	77.5048	965.332	80.5107	965.332	79.7388	965.332	80.6544
1,000.49	87.0189	1,000.49	86.9177	1,000.49	86.9506	1,000.49	86.5625	1,000.49	86.7725	1,000.49	85.9478	1,000.49	86.4543	1,000.49	85.1501	1,000.49	85.91	1,000.49	84.1551	1,000.49	85.0767	1,000.49	82.7862	1,000.49	83.9518	1,000.49	81.1042	1,000.49	82.6139	1,000.49	80.105	1,000.49	81.2288	1,000.49	80.4786	1,000.49	80.043	1,000.49	80.8145	1,000.49	79.406	1,000.49	79.9661	1,000.49	79.109	1,000.49	77.6583	1,000.49	78.0769	1,000.49	74.0322	1,000.49	75.2561	1,000.49	71.0443	1,000.49	70.3095	1,000.49	72.6159	1,000.49	71.017	1,000.49	75.4325	1,000.49	75.5987	1,000.49	77.4422	1,000.49	77.9122	1,000.49	78.3714
1,035.64	86.5754	1,035.64	86.2788	1,035.64	86.7015	1,035.64	85.9464	1,035.64	86.5954	1,035.64	85.5887	1,035.64	86.2891	1,035.64	85.0134	1,035.64	85.7597	1,035.64	84.0357	1,035.64	84.9064	1,035.64	82.748	1,035.64	83.7141	1,035.64	81.5155	1,035.64	82.3406	1,035.64	80.4657	1,035.64	80.98	1,035.64	79.3636	1,035.64	79.7515	1,035.64	78.273	1,035.64	79.1353	1,035.64	77.2694	1,035.64	79.4845	1,035.64	75.6268	1,035.64	79.4676	1,035.64	72.768	1,035.64	77.7077	1,035.64	72.2683	1,035.64	73.7807	1,035.64	75.7968	1,035.64	71.7689	1,035.64	78.3964	1,035.64	75.3863	1,035.64	79.5153	1,035.64	78.1203	1,035.64	79.4081
1,072.27	86.9927	1,072.27	86.7444	1,072.27	86.8428	1,072.27	86.1247	1,072.27	86.3206	1,072.27	85.248	1,072.27	85.5095	1,072.27	84.3432	1,072.27	84.5001	1,072.27	83.5121	1,072.27	83.3232	1,072.27	82.4552	1,072.27	82.0338	1,072.27	80.8967	1,072.27	80.8885	1,072.27	79.5812	1,072.27	80.0889	1,072.27	79.7075	1,072.27	79.3797	1,072.27	80.0014	1,072.27	78.7115	1,072.27	78.956	1,072.27	78.3958	1,072.27	76.4706	1,072.27	77.657	1,072.27	73.6212	1,072.27	74.7768	1,072.27	71.7111	1,072.27	66.8932	1,072.27	71.7027	1,072.27	68.8374	1,072.27	74.0273	1,072.27	75.2359	1,072.27	76.5092	1,072.27	77.6037	1,072.27	77.849
1,108.89	86.3016	1,108.89	86.0764	1,108.89	86.2881	1,108.89	85.5924	1,108.89	86.0626	1,108.89	84.8322	1,108.89	85.6695	1,108.89	83.8504	1,108.89	85.0392	1,108.89	82.7291	1,108.89	83.9568	1,108.89	81.4504	1,108.89	82.3232	1,108.89	79.9515	1,108.89	80.4477	1,108.89	78.6197	1,108.89	78.9499	1,108.89	78.3339	1,108.89	77.8881	1,108.89	78.4441	1,108.89	76.7755	1,108.89	77.3846	1,108.89	76.1276	1,108.89	74.4242	1,108.89	76.0848	1,108.89	70.1823	1,108.89	74.8065	1,108.89	71.0694	1,108.89	70.3489	1,108.89	75.4149	1,108.89	67.594	1,108.89	78.2577	1,108.89	74.2441	1,108.89	79.4658	1,108.89	77.7384	1,108.89	79.2767
1,148.44	86.4975	1,148.44	86.0273	1,148.44	86.6776	1,148.44	85.4826	1,148.44	86.4019	1,148.44	84.8098	1,148.44	85.7877	1,148.44	83.7212	1,148.44	85.0749	1,148.44	82.1385	1,148.44	84.2071	1,148.44	80.5345	1,148.44	82.8378	1,148.44	79.2379	1,148.44	80.8003	1,148.44	77.7848	1,148.44	78.6717	1,148.44	76.9671	1,148.44	77.6859	1,148.44	77.9395	1,148.44	77.4854	1,148.44	78.3326	1,148.44	77.2504	1,148.44	76.4974	1,148.44	77.0111	1,148.44	71.9143	1,148.44	75.7023	1,148.44	67.2044	1,148.44	71.109	1,148.44	71.4423	1,148.44	49.6528	1,148.44	75.1605	1,148.44	72.1483	1,148.44	77.2682	1,148.44	76.8207	1,148.44	78.0113
1,189.45	86.196	1,189.45	86.1013	1,189.45	86.2172	1,189.45	85.6674	1,189.45	86.1929	1,189.45	84.7642	1,189.45	85.9055	1,189.45	83.5597	1,189.45	85.2683	1,189.45	82.2514	1,189.45	84.3992	1,189.45	80.737	1,189.45	83.2033	1,189.45	78.7244	1,189.45	81.3241	1,189.45	76.2646	1,189.45	78.5938	1,189.45	74.9445	1,189.45	76.0922	1,189.45	75.6651	1,189.45	75.7612	1,189.45	75.9065	1,189.45	76.0379	1,189.45	74.2025	1,189.45	75.6732	1,189.45	68.9945	1,189.45	74.2222	1,189.45	50.8979	1,189.45	68.9178	1,189.45	70.8469	1,189.45	57.4028	1,189.45	76.0168	1,189.45	72.054	1,189.45	78.0152	1,189.45	76.1427	1,189.45	77.9308
1,230.47	85.0852	1,230.47	84.6214	1,230.47	85.1486	1,230.47	84.0909	1,230.47	84.8407	1,230.47	83.672	1,230.47	84.4415	1,230.47	83.0123	1,230.47	84.0526	1,230.47	81.6695	1,230.47	83.4988	1,230.47	79.652	1,230.47	82.5285	1,230.47	77.6595	1,230.47	80.9955	1,230.47	75.9166	1,230.47	79.0798	1,230.47	74.1992	1,230.47	77.2181	1,230.47	74.855	1,230.47	76.0144	1,230.47	76.2505	1,230.47	76.1544	1,230.47	75.5695	1,230.47	76.3978	1,230.47	72.0826	1,230.47	75.4515	1,230.47	62.8462	1,230.47	72.5735	1,230.47	66.536	1,230.47	63.4506	1,230.47	73.1918	1,230.47	66.2607	1,230.47	75.6101	1,230.47	73.9503	1,230.47	75.9652
1,274.41	83.7734	1,274.41	83.5522	1,274.41	83.7626	1,274.41	82.9247	1,274.41	83.5804	1,274.41	81.9746	1,274.41	83.1368	1,274.41	81.0533	1,274.41	82.4369	1,274.41	80.1517	1,274.41	81.6448	1,274.41	78.8957	1,274.41	80.8166	1,274.41	77.1835	1,274.41	79.5687	1,274.41	75.1393	1,274.41	77.2381	1,274.41	72.7815	1,274.41	74.4305	1,274.41	71.133	1,274.41	74.0525	1,274.41	72.5514	1,274.41	74.9348	1,274.41	73.9516	1,274.41	75.5806	1,274.41	72.2973	1,274.41	75.0911	1,274.41	64.5112	1,274.41	71.7714	1,274.41	63.5077	1,274.41	61.1584	1,274.41	71.5632	1,274.41	66.3832	1,274.41	74.4064	1,274.41	72.9273	1,274.41	74.9275
1,319.82	83.1006	1,319.82	82.6723	1,319.82	83.1254	1,319.82	81.9261	1,319.82	82.8528	1,319.82	81.0483	1,319.82	82.3686	1,319.82	80.1374	1,319.82	81.6642	1,319.82	79.2046	1,319.82	80.8171	1,319.82	77.9981	1,319.82	79.8265	1,319.82	76.2685	1,319.82	78.4519	1,319.82	73.94	1,319.82	76.8094	1,319.82	70.5235	1,319.82	75.0508	1,319.82	69.9594	1,319.82	72.7385	1,319.82	72.7953	1,319.82	72.3309	1,319.82	73.0947	1,319.82	73.6163	1,319.82	70.6116	1,319.82	73.2076	1,319.82	64.5722	1,319.82	70.2758	1,319.82	61.3599	1,319.82	59.7788	1,319.82	69.6694	1,319.82	65.6551	1,319.82	72.8665	1,319.82	72.3406	1,319.82	73.7359
1,366.7	84.151	1,366.7	83.483	1,366.7	84.1195	1,366.7	82.3661	1,366.7	83.455	1,366.7	81.2453	1,366.7	82.4349	1,366.7	80.3088	1,366.7	81.4418	1,366.7	79.2558	1,366.7	80.6806	1,366.7	77.6476	1,366.7	79.9254	1,366.7	75.595	1,366.7	78.7584	1,366.7	73.3793	1,366.7	76.6113	1,366.7	70.3503	1,366.7	72.899	1,366.7	68.9968	1,366.7	69.0877	1,366.7	71.1953	1,366.7	69.9592	1,366.7	71.854	1,366.7	72.7678	1,366.7	69.6609	1,366.7	74.1395	1,366.7	64.197	1,366.7	72.8712	1,366.7	66.055	1,366.7	67.8662	1,366.7	72.1639	1,366.7	64.0846	1,366.7	74.4052	1,366.7	70.4648	1,366.7	73.6968
1,413.57	83.9158	1,413.57	83.8081	1,413.57	83.6457	1,413.57	83.2043	1,413.57	83.0287	1,413.57	82.0853	1,413.57	82.0518	1,413.57	80.8424	1,413.57	80.5064	1,413.57	79.7961	1,413.57	78.9715	1,413.57	78.5229	1,413.57	78.7472	1,413.57	76.7989	1,413.57	78.7659	1,413.57	74.4542	1,413.57	77.3472	1,413.57	70.7876	1,413.57	74.3481	1,413.57	67.462	1,413.57	70.9111	1,413.57	69.6913	1,413.57	70.2422	1,413.57	71.71	1,413.57	73.1938	1,413.57	69.5741	1,413.57	74.9617	1,413.57	54.6769	1,413.57	75.0022	1,413.57	67.0372	1,413.57	72.1916	1,413.57	72.1451	1,413.57	58.9173	1,413.57	73.059	1,413.57	67.4983	1,413.57	72.19
1,463.38	83.6263	1,463.38	83.014	1,463.38	83.6009	1,463.38	82.1803	1,463.38	82.7423	1,463.38	81.1068	1,463.38	81.3987	1,463.38	79.5573	1,463.38	80.0738	1,463.38	78.4435	1,463.38	78.7709	1,463.38	77.9181	1,463.38	77.9387	1,463.38	76.0053	1,463.38	77.7295	1,463.38	72.7098	1,463.38	76.9526	1,463.38	70.5033	1,463.38	74.8957	1,463.38	68.555	1,463.38	71.4644	1,463.38	61.8884	1,463.38	67.2139	1,463.38	61.2914	1,463.38	67.6396	1,463.38	67.0556	1,463.38	69.1715	1,463.38	67.8425	1,463.38	68.1086	1,463.38	69.4318	1,463.38	64.9079	1,463.38	71.455	1,463.38	54.8148	1,463.38	72.9386	1,463.38	70.4614	1,463.38	73.6731
1,516.11	83.8877	1,516.11	83.7271	1,516.11	83.7202	1,516.11	83.1075	1,516.11	83.3426	1,516.11	81.8864	1,516.11	82.5494	1,516.11	79.9415	1,516.11	81.19	1,516.11	77.6996	1,516.11	79.2974	1,516.11	76.1428	1,516.11	77.0134	1,516.11	74.835	1,516.11	75.2788	1,516.11	73.9488	1,516.11	75.0003	1,516.11	73.8418	1,516.11	73.7689	1,516.11	72.1813	1,516.11	71.2501	1,516.11	69.8301	1,516.11	68.7167	1,516.11	69.2212	1,516.11	67.4501	1,516.11	69.5728	1,516.11	68.5899	1,516.11	69.8676	1,516.11	67.5732	1,516.11	67.0933	1,516.11	67.9854	1,516.11	58.6761	1,516.11	64.3685	1,516.11	56.6996	1,516.11	53.9456	1,516.11	56.6652
1,568.85	87.8716	1,568.85	87.5362	1,568.85	87.7604	1,568.85	86.8047	1,568.85	87.3691	1,568.85	85.9251	1,568.85	86.7043	1,568.85	84.7733	1,568.85	85.491	1,568.85	82.9001	1,568.85	83.551	1,568.85	80.8684	1,568.85	81.3582	1,568.85	79.6345	1,568.85	79.6567	1,568.85	78.4566	1,568.85	78.6388	1,568.85	77.088	1,568.85	78.2586	1,568.85	75.2586	1,568.85	76.8929	1,568.85	73.7803	1,568.85	72.847	1,568.85	74.4143	1,568.85	71.7522	1,568.85	74.6728	1,568.85	74.4834	1,568.85	73.6522	1,568.85	73.6853	1,568.85	69.1558	1,568.85	69.8395	1,568.85	57.2972	1,568.85	66.6183	1,568.85	69.6316	1,568.85	69.9031	1,568.85	71.9188
1,624.51	87.4535	1,624.51	87.3467	1,624.51	87.0995	1,624.51	86.7523	1,624.51	86.5663	1,624.51	85.9505	1,624.51	85.9157	1,624.51	84.9037	1,624.51	84.8465	1,624.51	83.2167	1,624.51	83.2312	1,624.51	81.2427	1,624.51	81.2416	1,624.51	79.8626	1,624.51	78.6358	1,624.51	78.5913	1,624.51	77.6203	1,624.51	76.6413	1,624.51	77.5209	1,624.51	73.1532	1,624.51	75.3468	1,624.51	69.5626	1,624.51	72.992	1,624.51	72.5565	1,624.51	69.9191	1,624.51	74.1898	1,624.51	71.357	1,624.51	73.0043	1,624.51	71.8803	1,624.51	68.0734	1,624.51	67.6687	1,624.51	50.3351	1,624.51	53.7721	1,624.51	68.3223	1,624.51	65.3859	1,624.51	70.3776
1,681.64	86.361	1,681.64	86.2795	1,681.64	86.1889	1,681.64	85.8064	1,681.64	85.7602	1,681.64	85.0354	1,681.64	85.0135	1,681.64	84.0572	1,681.64	84.0982	1,681.64	82.5667	1,681.64	82.7513	1,681.64	80.5558	1,681.64	80.8201	1,681.64	79.2435	1,681.64	79.0238	1,681.64	78.5	1,681.64	77.1626	1,681.64	77.1228	1,681.64	75.3967	1,681.64	75.2615	1,681.64	74.6357	1,681.64	72.289	1,681.64	73.6096	1,681.64	72.2317	1,681.64	72.3588	1,681.64	73.3469	1,681.64	73.2136	1,681.64	72.2661	1,681.64	73.1994	1,681.64	66.97	1,681.64	69.6905	1,681.64	56.8551	1,681.64	61.7219	1,681.64	66.1714	1,681.64	63.9354	1,681.64	68.6657
1,741.7	85.3026	1,741.7	84.7538	1,741.7	85.1888	1,741.7	83.9835	1,741.7	84.5822	1,741.7	83.1285	1,741.7	83.9936	1,741.7	81.809	1,741.7	83.0407	1,741.7	79.9264	1,741.7	81.1975	1,741.7	78.2235	1,741.7	79.2924	1,741.7	77.1615	1,741.7	77.6323	1,741.7	75.7216	1,741.7	75.6477	1,741.7	74.3402	1,741.7	74.3179	1,741.7	72.5474	1,741.7	73.2022	1,741.7	70.4903	1,741.7	70.5322	1,741.7	71.6871	1,741.7	68.6373	1,741.7	72.0838	1,741.7	71.0208	1,741.7	69.5138	1,741.7	70.9357	1,741.7	60.8978	1,741.7	67.5149	1,741.7	64.8811	1,741.7	59.8491	1,741.7	68.7798	1,741.7	65.687	1,741.7	68.9242
1,803.22	85.7131	1,803.22	85.2473	1,803.22	85.6374	1,803.22	84.279	1,803.22	85.2821	1,803.22	83.0644	1,803.22	84.3772	1,803.22	81.6112	1,803.22	83.1609	1,803.22	80.0052	1,803.22	81.9329	1,803.22	78.1459	1,803.22	80.192	1,803.22	76.2002	1,803.22	78.2905	1,803.22	74.8171	1,803.22	76.7098	1,803.22	73.1868	1,803.22	75.4552	1,803.22	71.2944	1,803.22	74.0223	1,803.22	68.202	1,803.22	71.9844	1,803.22	67.6348	1,803.22	69.5457	1,803.22	69.2737	1,803.22	70.4814	1,803.22	68.2674	1,803.22	70.8879	1,803.22	61.7796	1,803.22	68.48	1,803.22	58.1045	1,803.22	59.1262	1,803.22	66.4383	1,803.22	60.5496	1,803.22	66.2637
1,866.21	85.8002	1,866.21	85.4079	1,866.21	85.7785	1,866.21	84.6364	1,866.21	85.1991	1,866.21	83.4324	1,866.21	84.2543	1,866.21	82.0079	1,866.21	83.0389	1,866.21	80.3624	1,866.21	81.5008	1,866.21	78.2286	1,866.21	79.6738	1,866.21	76.3205	1,866.21	77.4408	1,866.21	74.976	1,866.21	75.5736	1,866.21	73.529	1,866.21	74.2184	1,866.21	71.6202	1,866.21	73.0992	1,866.21	69.0195	1,866.21	70.4993	1,866.21	66.3206	1,866.21	68.1257	1,866.21	67.4355	1,866.21	68.6533	1,866.21	67.9253	1,866.21	69.9595	1,866.21	62.7464	1,866.21	67.2996	1,866.21	55.0464	1,866.21	58.6839	1,866.21	64.6994	1,866.21	63.5789	1,866.21	67.157
1,932.13	84.6909	1,932.13	84.4602	1,932.13	84.6133	1,932.13	83.8625	1,932.13	84.082	1,932.13	82.7889	1,932.13	83.0384	1,932.13	81.4198	1,932.13	81.7632	1,932.13	79.9249	1,932.13	80.2498	1,932.13	77.9991	1,932.13	78.2652	1,932.13	75.8053	1,932.13	75.9181	1,932.13	74.2229	1,932.13	73.3261	1,932.13	72.667	1,932.13	71.7297	1,932.13	71.0907	1,932.13	70.7626	1,932.13	68.885	1,932.13	68.7008	1,932.13	66.5927	1,932.13	64.3827	1,932.13	67.0392	1,932.13	64.1457	1,932.13	66.6545	1,932.13	67.3087	1,932.13	62.704	1,932.13	65.639	1,932.13	55.66	1,932.13	55.2543	1,932.13	64.3484	1,932.13	60.3294	1,932.13	65.729
1,999.51	82.9424	1,999.51	82.7104	1,999.51	82.8247	1,999.51	82.0958	1,999.51	82.3013	1,999.51	81.0674	1,999.51	81.2424	1,999.51	79.8553	1,999.51	80.1496	1,999.51	78.3395	1,999.51	78.6146	1,999.51	76.0039	1,999.51	76.716	1,999.51	73.6513	1,999.51	74.5639	1,999.51	72.0025	1,999.51	72.0465	1,999.51	70.6284	1,999.51	69.422	1,999.51	69.191	1,999.51	67.9253	1,999.51	66.902	1,999.51	66.6939	1,999.51	65.2324	1,999.51	63.9719	1,999.51	65.4816	1,999.51	60.8483	1,999.51	65.096	1,999.51	63.1341	1,999.51	60.8374	1,999.51	63.7493	1,999.51	55.2959	1,999.51	57.6097	1,999.51	62.3925	1,999.51	56.0893	1,999.51	62.5248
2,069.82	82.7797	2,069.82	82.3439	2,069.82	82.7732	2,069.82	81.548	2,069.82	82.2521	2,069.82	80.4218	2,069.82	81.3179	2,069.82	79.0418	2,069.82	80.0804	2,069.82	77.3752	2,069.82	78.5718	2,069.82	75.1659	2,069.82	76.8951	2,069.82	72.196	2,069.82	74.485	2,069.82	69.7707	2,069.82	72.1261	2,069.82	68.0581	2,069.82	69.9332	2,069.82	66.2378	2,069.82	68.0523	2,069.82	64.3345	2,069.82	66.0046	2,069.82	62.6644	2,069.82	63.7826	2,069.82	64.1787	2,069.82	58.9847	2,069.82	63.9661	2,069.82	62.0716	2,069.82	58.8802	2,069.82	63.0475	2,069.82	53.1776	2,069.82	58.2657	2,069.82	61.1219	2,069.82	51.4414	2,069.82	61.3666
2,143.07	83.3773	2,143.07	83.0396	2,143.07	83.1751	2,143.07	82.1858	2,143.07	82.5883	2,143.07	80.9085	2,143.07	81.6161	2,143.07	79.4425	2,143.07	80.2525	2,143.07	78.0243	2,143.07	78.7725	2,143.07	76.2206	2,143.07	76.9948	2,143.07	73.4486	2,143.07	74.9937	2,143.07	70.564	2,143.07	72.3257	2,143.07	68.3287	2,143.07	70.1287	2,143.07	66.5513	2,143.07	67.764	2,143.07	63.4092	2,143.07	65.8853	2,143.07	60.6878	2,143.07	63.2981	2,143.07	62.5066	2,143.07	59.9591	2,143.07	63.884	2,143.07	61.5263	2,143.07	59.9065	2,143.07	63.3477	2,143.07	49.8127	2,143.07	59.1466	2,143.07	60.1214	2,143.07	54.0842	2,143.07	61.0188
2,219.24	82.7719	2,219.24	82.5405	2,219.24	82.7074	2,219.24	81.8241	2,219.24	82.1757	2,219.24	80.5871	2,219.24	81.1678	2,219.24	78.9936	2,219.24	79.521	2,219.24	77.4824	2,219.24	77.7936	2,219.24	76.1011	2,219.24	76.121	2,219.24	73.8548	2,219.24	74.2891	2,219.24	70.5688	2,219.24	71.5117	2,219.24	68.1609	2,219.24	68.4775	2,219.24	66.6045	2,219.24	66.1084	2,219.24	64.2181	2,219.24	63.8197	2,219.24	61.2324	2,219.24	61.1363	2,219.24	61.0848	2,219.24	56.5496	2,219.24	63.4485	2,219.24	59.0877	2,219.24	59.7122	2,219.24	62.92	2,219.24	50.3813	2,219.24	58.9817	2,219.24	60.0445	2,219.24	52.1706	2,219.24	60.4657
2,296.88	81.9269	2,296.88	81.5439	2,296.88	81.9365	2,296.88	80.7859	2,296.88	81.5175	2,296.88	79.6378	2,296.88	80.7737	2,296.88	77.9053	2,296.88	79.3557	2,296.88	76.0447	2,296.88	77.4788	2,296.88	74.6161	2,296.88	75.4658	2,296.88	72.4927	2,296.88	73.3188	2,296.88	69.6822	2,296.88	70.9934	2,296.88	67.3078	2,296.88	68.0909	2,296.88	64.0601	2,296.88	65.3627	2,296.88	61.9853	2,296.88	62.473	2,296.88	60.611	2,296.88	60.3566	2,296.88	58.5894	2,296.88	55.2125	2,296.88	59.8896	2,296.88	54.7301	2,296.88	57.3617	2,296.88	59.195	2,296.88	51.5978	2,296.88	56.1633	2,296.88	55.2953	2,296.88	46.5561	2,296.88	56.7449
2,378.91	82.5278	2,378.91	82.0933	2,378.91	82.5978	2,378.91	81.0661	2,378.91	82.2006	2,378.91	79.5811	2,378.91	81.3358	2,378.91	77.5569	2,378.91	80.015	2,378.91	75.228	2,378.91	78.0342	2,378.91	72.9613	2,378.91	75.8191	2,378.91	70.8219	2,378.91	73.5921	2,378.91	68.3073	2,378.91	70.9438	2,378.91	66.0026	2,378.91	67.7261	2,378.91	62.9843	2,378.91	65.7293	2,378.91	60.4972	2,378.91	63.0243	2,378.91	58.6182	2,378.91	60.7404	2,378.91	55.2274	2,378.91	58.1053	2,378.91	57.6663	2,378.91	52.1489	2,378.91	57.5943	2,378.91	57.3813	2,378.91	43.457	2,378.91	53.6922	2,378.91	53.5517	2,378.91	43.9403	2,378.91	56.1998
2,462.4	83.0903	2,462.4	82.6528	2,462.4	82.988	2,462.4	81.8017	2,462.4	82.4062	2,462.4	80.4447	2,462.4	81.307	2,462.4	78.4777	2,462.4	79.8317	2,462.4	76.0893	2,462.4	77.5765	2,462.4	73.8211	2,462.4	75.0567	2,462.4	71.1834	2,462.4	72.5197	2,462.4	67.8939	2,462.4	70.4626	2,462.4	65.9416	2,462.4	66.4678	2,462.4	64.1978	2,462.4	64.4617	2,462.4	61.7765	2,462.4	61.6959	2,462.4	60.1093	2,462.4	59.4929	2,462.4	57.6854	2,462.4	56.9649	2,462.4	59.3026	2,462.4	52.074	2,462.4	57.2492	2,462.4	56.395	2,462.4	49.1862	2,462.4	49.4677	2,462.4	50.1607	2,462.4	45.7905	2,462.4	55.0506
2,548.83	83.2445	2,548.83	82.864	2,548.83	83.172	2,548.83	81.9585	2,548.83	82.4311	2,548.83	80.4726	2,548.83	81.1781	2,548.83	78.7605	2,548.83	79.6473	2,548.83	76.4916	2,548.83	77.4023	2,548.83	73.9936	2,548.83	74.8297	2,548.83	71.4888	2,548.83	72.5537	2,548.83	68.7378	2,548.83	69.6124	2,548.83	65.5295	2,548.83	66.5959	2,548.83	63.2828	2,548.83	64.1502	2,548.83	62.4933	2,548.83	61.7671	2,548.83	61.3922	2,548.83	59.5162	2,548.83	57.6425	2,548.83	57.516	2,548.83	57.1371	2,548.83	54.2145	2,548.83	59.4189	2,548.83	53.5387	2,548.83	52.3853	2,548.83	53.7478	2,548.83	48.6823	2,548.83	38.9877	2,548.83	53.9572
2,639.65	85.0258	2,639.65	84.2852	2,639.65	84.9585	2,639.65	83.066	2,639.65	84.362	2,639.65	81.3688	2,639.65	83.1717	2,639.65	79.4133	2,639.65	81.4414	2,639.65	76.8918	2,639.65	79.3071	2,639.65	74.5711	2,639.65	76.718	2,639.65	72.4492	2,639.65	74.257	2,639.65	69.1962	2,639.65	71.4772	2,639.65	66.4466	2,639.65	68.3076	2,639.65	64.7664	2,639.65	65.36	2,639.65	61.3933	2,639.65	63.1886	2,639.65	62.9102	2,639.65	61.9444	2,639.65	59.0482	2,639.65	60.1582	2,639.65	58.0041	2,639.65	56.3375	2,639.65	56.6761	2,639.65	56.8959	2,639.65	52.925	2,639.65	55.2261	2,639.65	45.4919	2,639.65	48.2438	2,639.65	50.2675
2,731.93	86.0503	2,731.93	85.5679	2,731.93	85.9866	2,731.93	84.4137	2,731.93	85.386	2,731.93	82.7818	2,731.93	84.082	2,731.93	80.7727	2,731.93	82.2219	2,731.93	78.3284	2,731.93	79.9101	2,731.93	75.4891	2,731.93	77.185	2,731.93	73.4268	2,731.93	74.9495	2,731.93	71.2066	2,731.93	72.1896	2,731.93	68.1616	2,731.93	69.5159	2,731.93	64.8729	2,731.93	66.7495	2,731.93	61.1711	2,731.93	64.6207	2,731.93	61.4293	2,731.93	61.0748	2,731.93	58.8947	2,731.93	62.4243	2,731.93	54.6617	2,731.93	59.5528	2,731.93	60.0177	2,731.93	57.0196	2,731.93	54.4785	2,731.93	57.0888	2,731.93	51.2924	2,731.93	43.9545	2,731.93	51.6764
2,828.61	85.9958	2,828.61	85.595	2,828.61	85.9848	2,828.61	84.5681	2,828.61	85.2522	2,828.61	83.0738	2,828.61	83.9648	2,828.61	81.25	2,828.61	82.1223	2,828.61	78.9732	2,828.61	79.9263	2,828.61	76.3117	2,828.61	77.5272	2,828.61	74.0777	2,828.61	74.4313	2,828.61	72.2421	2,828.61	72.1821	2,828.61	69.9439	2,828.61	70.1627	2,828.61	68.4901	2,828.61	68.0881	2,828.61	64.9824	2,828.61	64.6137	2,828.61	62.3378	2,828.61	58.7561	2,828.61	62.8441	2,828.61	61.729	2,828.61	59.3155	2,828.61	60.6941	2,828.61	58.6843	2,828.61	58.6086	2,828.61	57.4796	2,828.61	59.8394	2,828.61	56.3238	2,828.61	55.6352	2,828.61	50.0378
2,928.22	86.1705	2,928.22	85.6333	2,928.22	86.2091	2,928.22	84.505	2,928.22	85.5168	2,928.22	83.1267	2,928.22	84.2797	2,928.22	81.2913	2,928.22	82.7555	2,928.22	79.5152	2,928.22	81.013	2,928.22	76.92	2,928.22	79.0165	2,928.22	74.0799	2,928.22	75.8772	2,928.22	71.9464	2,928.22	73.5105	2,928.22	69.7846	2,928.22	71.8437	2,928.22	68.7197	2,928.22	69.1117	2,928.22	65.764	2,928.22	67.4988	2,928.22	61.9828	2,928.22	64.2183	2,928.22	62.0608	2,928.22	63.7656	2,928.22	57.2012	2,928.22	60.3159	2,928.22	61.2382	2,928.22	58.292	2,928.22	55.2904	2,928.22	61.8478	2,928.22	58.8602	2,928.22	52.5782	2,928.22	62.52
3,030.76	85.9829	3,030.76	85.253	3,030.76	85.9155	3,030.76	84.1409	3,030.76	85.1646	3,030.76	82.7208	3,030.76	83.9052	3,030.76	81.018	3,030.76	82.3556	3,030.76	79.5301	3,030.76	80.8061	3,030.76	77.7175	3,030.76	79.0117	3,030.76	74.9633	3,030.76	76.4885	3,030.76	72.5537	3,030.76	73.8385	3,030.76	70.4766	3,030.76	71.4668	3,030.76	69.3919	3,030.76	68.902	3,030.76	67.187	3,030.76	67.3421	3,030.76	64.7325	3,030.76	65.462	3,030.76	64.7373	3,030.76	63.8443	3,030.76	60.7925	3,030.76	61.7847	3,030.76	60.004	3,030.76	58.1615	3,030.76	55.5255	3,030.76	59.482	3,030.76	59.5285	3,030.76	47.1215	3,030.76	62.5448
3,137.7	85.3836	3,137.7	84.5665	3,137.7	85.1011	3,137.7	83.5614	3,137.7	84.4142	3,137.7	82.0564	3,137.7	83.2974	3,137.7	80.3472	3,137.7	81.6498	3,137.7	78.586	3,137.7	79.977	3,137.7	77.0167	3,137.7	78.4199	3,137.7	74.5533	3,137.7	76.6814	3,137.7	72.3029	3,137.7	73.7063	3,137.7	69.7946	3,137.7	71.4915	3,137.7	68.1627	3,137.7	68.34	3,137.7	65.954	3,137.7	67.0711	3,137.7	62.0689	3,137.7	64.5299	3,137.7	63.8021	3,137.7	62.8834	3,137.7	61.2898	3,137.7	63.7618	3,137.7	61.4885	3,137.7	58.8769	3,137.7	55.9976	3,137.7	59.6753	3,137.7	59.0261	3,137.7	55.0188	3,137.7	63.8927
3,249.02	85.2643	3,249.02	84.6351	3,249.02	85.2005	3,249.02	83.64	3,249.02	84.6783	3,249.02	82.5229	3,249.02	83.7356	3,249.02	80.8337	3,249.02	82.4732	3,249.02	79.238	3,249.02	81.0392	3,249.02	78.1873	3,249.02	79.2744	3,249.02	75.5082	3,249.02	77.2262	3,249.02	73.2193	3,249.02	75.3384	3,249.02	71.417	3,249.02	72.8828	3,249.02	68.0893	3,249.02	70.231	3,249.02	67.5236	3,249.02	68.4601	3,249.02	61.9011	3,249.02	66.4292	3,249.02	65.2634	3,249.02	62.5113	3,249.02	60.9121	3,249.02	65.7515	3,249.02	61.3915	3,249.02	60.9973	3,249.02	55.2234	3,249.02	59.5436	3,249.02	63.4446	3,249.02	48.7256	3,249.02	61.3656
3,363.28	85.5434	3,363.28	84.904	3,363.28	85.395	3,363.28	84.1398	3,363.28	85.0382	3,363.28	83.0243	3,363.28	84.1987	3,363.28	82.0809	3,363.28	83.1136	3,363.28	80.5467	3,363.28	81.8709	3,363.28	79.122	3,363.28	80.397	3,363.28	77.3736	3,363.28	78.754	3,363.28	74.0715	3,363.28	76.8767	3,363.28	71.6122	3,363.28	74.13	3,363.28	69.0236	3,363.28	71.6508	3,363.28	68.9256	3,363.28	70.3046	3,363.28	66.2115	3,363.28	67.966	3,363.28	66.0538	3,363.28	62.2924	3,363.28	64.2761	3,363.28	67.828	3,363.28	62.4315	3,363.28	63.7464	3,363.28	57.0463	3,363.28	61.0528	3,363.28	62.5848	3,363.28	56.0177	3,363.28	63.7113
3,481.93	84.4118	3,481.93	84.2247	3,481.93	84.2258	3,481.93	83.8293	3,481.93	84.332	3,481.93	83.337	3,481.93	83.9832	3,481.93	82.6243	3,481.93	83.0814	3,481.93	81.5169	3,481.93	82.0247	3,481.93	78.9989	3,481.93	80.672	3,481.93	78.0566	3,481.93	79.1907	3,481.93	75.9233	3,481.93	77.4288	3,481.93	73.6008	3,481.93	74.5375	3,481.93	71.0898	3,481.93	72.3449	3,481.93	71.5167	3,481.93	70.5705	3,481.93	69.0592	3,481.93	70.8158	3,481.93	67.9646	3,481.93	64.928	3,481.93	65.8798	3,481.93	65.9224	3,481.93	64.2053	3,481.93	65.4147	3,481.93	54.8911	3,481.93	63.4049	3,481.93	62.1854	3,481.93	51.9668	3,481.93	62.8464
3,604.98	83.7629	3,604.98	84.1418	3,604.98	84.0983	3,604.98	83.8121	3,604.98	84.3327	3,604.98	83.4825	3,604.98	84.6316	3,604.98	83.2629	3,604.98	84.0249	3,604.98	82.6942	3,604.98	83.7398	3,604.98	81.0424	3,604.98	82.4098	3,604.98	79.011	3,604.98	80.9325	3,604.98	77.4245	3,604.98	78.9368	3,604.98	75.3192	3,604.98	77.704	3,604.98	71.1472	3,604.98	74.8867	3,604.98	72.4074	3,604.98	71.3268	3,604.98	69.6855	3,604.98	73.2485	3,604.98	66.9807	3,604.98	68.1099	3,604.98	69.6472	3,604.98	69.6277	3,604.98	65.706	3,604.98	68.4325	3,604.98	60.3699	3,604.98	66.419	3,604.98	62.9998	3,604.98	56.7924	3,604.98	67.8553
3,732.42	84.1114	3,732.42	84.3092	3,732.42	84.1963	3,732.42	84.2018	3,732.42	84.4319	3,732.42	84.1708	3,732.42	84.7834	3,732.42	83.7857	3,732.42	84.5374	3,732.42	83.2393	3,732.42	83.9618	3,732.42	82.3402	3,732.42	83.2318	3,732.42	80.227	3,732.42	81.3466	3,732.42	78.9877	3,732.42	79.2343	3,732.42	76.6618	3,732.42	77.7361	3,732.42	74.4313	3,732.42	75.4865	3,732.42	73.3207	3,732.42	72.1804	3,732.42	70.9224	3,732.42	71.2373	3,732.42	66.3651	3,732.42	68.4155	3,732.42	69.9095	3,732.42	69.5945	3,732.42	67.7433	3,732.42	69.9377	3,732.42	63.9453	3,732.42	69.5213	3,732.42	66.1368	3,732.42	59.9051	3,732.42	68.9298
3,864.26	84.1929	3,864.26	83.7781	3,864.26	84.2433	3,864.26	83.5605	3,864.26	84.4294	3,864.26	84.2246	3,864.26	84.4648	3,864.26	83.0979	3,864.26	84.9239	3,864.26	82.8901	3,864.26	84.3724	3,864.26	82.1153	3,864.26	83.2737	3,864.26	80.1369	3,864.26	81.5598	3,864.26	77.5465	3,864.26	80.1277	3,864.26	75.7779	3,864.26	78.2513	3,864.26	74.533	3,864.26	75.727	3,864.26	70.2519	3,864.26	73.0538	3,864.26	72.2089	3,864.26	71.5624	3,864.26	66.5609	3,864.26	71.2274	3,864.26	70.5046	3,864.26	67.4249	3,864.26	69.1258	3,864.26	69.4366	3,864.26	65.5743	3,864.26	69.9365	3,864.26	67.6656	3,864.26	60.9201	3,864.26	69.7961
4,000.49	85.3529	4,000.49	84.2944	4,000.49	85.1574	4,000.49	84.1992	4,000.49	84.5789	4,000.49	84.2421	4,000.49	84.1178	4,000.49	83.6937	4,000.49	84.3527	4,000.49	82.6647	4,000.49	83.9202	4,000.49	81.3225	4,000.49	83.2761	4,000.49	79.7008	4,000.49	81.1456	4,000.49	76.7603	4,000.49	79.413	4,000.49	75.844	4,000.49	77.8143	4,000.49	74.2363	4,000.49	76.3563	4,000.49	68.5521	4,000.49	73.5215	4,000.49	70.8481	4,000.49	69.4686	4,000.49	66.776	4,000.49	70.2121	4,000.49	66.8587	4,000.49	67.6242	4,000.49	66.8042	4,000.49	68.425	4,000.49	67.5768	4,000.49	67.3438	4,000.49	64.2055	4,000.49	59.7393	4,000.49	68.7409
4,141.11	86.1891	4,141.11	85.3947	4,141.11	86.2836	4,141.11	84.6171	4,141.11	84.6693	4,141.11	83.0186	4,141.11	84.2093	4,141.11	83.5035	4,141.11	83.5361	4,141.11	82.0998	4,141.11	83.0408	4,141.11	79.9297	4,141.11	82.3187	4,141.11	78.1238	4,141.11	80.5163	4,141.11	75.282	4,141.11	78.9405	4,141.11	74.5832	4,141.11	75.8773	4,141.11	72.588	4,141.11	74.3547	4,141.11	69.0496	4,141.11	72.2004	4,141.11	69.7897	4,141.11	71.0161	4,141.11	64.4351	4,141.11	68.3918	4,141.11	67.4324	4,141.11	63.6567	4,141.11	64.9432	4,141.11	67.4474	4,141.11	64.5458	4,141.11	67.2315	4,141.11	62.0859	4,141.11	59.2209	4,141.11	64.1186
4,287.6	86.662	4,287.6	86.3342	4,287.6	86.1003	4,287.6	84.6104	4,287.6	85.337	4,287.6	83.2756	4,287.6	83.6842	4,287.6	83.0418	4,287.6	82.2519	4,287.6	81.9403	4,287.6	81.8793	4,287.6	79.6515	4,287.6	80.0665	4,287.6	77.2241	4,287.6	78.3485	4,287.6	77.1433	4,287.6	76.1962	4,287.6	73.8481	4,287.6	75.0011	4,287.6	70.8417	4,287.6	73.2717	4,287.6	70.4836	4,287.6	71.367	4,287.6	67.315	4,287.6	67.7225	4,287.6	65.8276	4,287.6	65.9577	4,287.6	66.9735	4,287.6	62.9539	4,287.6	58.958	4,287.6	65.9681	4,287.6	60.0918	4,287.6	64.5728	4,287.6	60.8537	4,287.6	60.4947	4,287.6	64.1252
4,438.48	87.5036	4,438.48	86.5019	4,438.48	86.8568	4,438.48	84.7746	4,438.48	86.1191	4,438.48	84.5295	4,438.48	83.7425	4,438.48	81.587	4,438.48	82.4183	4,438.48	80.5705	4,438.48	80.8888	4,438.48	78.5317	4,438.48	79.604	4,438.48	76.8346	4,438.48	77.6698	4,438.48	74.6982	4,438.48	75.4832	4,438.48	68.8198	4,438.48	73.567	4,438.48	68.3086	4,438.48	70.1536	4,438.48	66.2008	4,438.48	69.5091	4,438.48	65.0631	4,438.48	68.0277	4,438.48	63.4187	4,438.48	67.1231	4,438.48	64.2106	4,438.48	61.7639	4,438.48	59.3749	4,438.48	62.6197	4,438.48	62.9141	4,438.48	61.4164	4,438.48	59.1038	4,438.48	57.5589	4,438.48	63.9731
4,595.21	86.5427	4,595.21	85.2571	4,595.21	86.5555	4,595.21	84.2939	4,595.21	84.9143	4,595.21	83.3788	4,595.21	83.1945	4,595.21	81.0752	4,595.21	81.3885	4,595.21	78.4873	4,595.21	79.9833	4,595.21	77.9411	4,595.21	78.5265	4,595.21	75.8271	4,595.21	75.6987	4,595.21	71.1722	4,595.21	73.7967	4,595.21	70.5602	4,595.21	70.7364	4,595.21	68.025	4,595.21	68.396	4,595.21	68.3018	4,595.21	67.3859	4,595.21	64.5168	4,595.21	67.2644	4,595.21	62.9686	4,595.21	65.3543	4,595.21	62.9855	4,595.21	61.7578	4,595.21	62.1161	4,595.21	62.5488	4,595.21	62.0325	4,595.21	62.5028	4,595.21	60.7618	4,595.21	58.6251	4,595.21	63.3072
4,756.35	86.1409	4,756.35	85.5988	4,756.35	86.6793	4,756.35	83.6417	4,756.35	85.1358	4,756.35	80.3405	4,756.35	83.5186	4,756.35	79.759	4,756.35	81.8005	4,756.35	77.5916	4,756.35	79.9865	4,756.35	75.5403	4,756.35	77.248	4,756.35	70.9533	4,756.35	75.5322	4,756.35	69.3289	4,756.35	73.0058	4,756.35	68.8606	4,756.35	70.0099	4,756.35	67.7529	4,756.35	69.6667	4,756.35	65.5048	4,756.35	66.0487	4,756.35	61.6018	4,756.35	64.6664	4,756.35	61.3296	4,756.35	62.8728	4,756.35	63.1632	4,756.35	61.1919	4,756.35	58.7262	4,756.35	61.6633	4,756.35	59.4683	4,756.35	59.3765	4,756.35	59.8307	4,756.35	58.0745	4,756.35	62.9295
4,924.8	86.3024	4,924.8	85.678	4,924.8	85.8388	4,924.8	83.3751	4,924.8	85.0684	4,924.8	81.0302	4,924.8	82.7944	4,924.8	79.5158	4,924.8	81.3007	4,924.8	79.0595	4,924.8	79.269	4,924.8	75.1238	4,924.8	76.9493	4,924.8	73.438	4,924.8	75.7545	4,924.8	73.0496	4,924.8	73.4541	4,924.8	70.0121	4,924.8	71.515	4,924.8	69.7123	4,924.8	68.3428	4,924.8	63.968	4,924.8	65.916	4,924.8	62.2339	4,924.8	65.0839	4,924.8	63.9827	4,924.8	61.4323	4,924.8	61.572	4,924.8	60.4311	4,924.8	60.6923	4,924.8	62.8274	4,924.8	61.0533	4,924.8	56.9148	4,924.8	53.6785	4,924.8	56.327	4,924.8	59.9412
5,097.66	86.7084	5,097.66	85.1479	5,097.66	86.1147	5,097.66	83.4296	5,097.66	84.7184	5,097.66	81.3473	5,097.66	82.1517	5,097.66	78.5641	5,097.66	80.1551	5,097.66	77.2469	5,097.66	78.0809	5,097.66	74.4841	5,097.66	77.2562	5,097.66	73.7441	5,097.66	74.3783	5,097.66	71.138	5,097.66	70.6522	5,097.66	67.886	5,097.66	69.5844	5,097.66	64.8199	5,097.66	66.5785	5,097.66	63.2984	5,097.66	66.164	5,097.66	63.2539	5,097.66	60.5498	5,097.66	58.7646	5,097.66	62.3412	5,097.66	57.6726	5,097.66	62.5481	5,097.66	60.5888	5,097.66	60.1028	5,097.66	56.9828	5,097.66	58.3349	5,097.66	42.9984	5,097.66	57.1193	5,097.66	55.4454
5,277.83	85.0747	5,277.83	82.8197	5,277.83	85.6629	5,277.83	80.9988	5,277.83	83.362	5,277.83	78.7918	5,277.83	81.0137	5,277.83	76.2394	5,277.83	78.0841	5,277.83	72.9057	5,277.83	76.1383	5,277.83	73.6956	5,277.83	74.4904	5,277.83	72.6056	5,277.83	71.9344	5,277.83	69.6509	5,277.83	70.8958	5,277.83	67.1848	5,277.83	67.3911	5,277.83	61.7877	5,277.83	66.8077	5,277.83	64.556	5,277.83	64.2183	5,277.83	64.5386	5,277.83	62.2884	5,277.83	59.8203	5,277.83	60.9745	5,277.83	60.1623	5,277.83	56.2777	5,277.83	58.8101	5,277.83	59.7547	5,277.83	57.8642	5,277.83	55.3003	5,277.83	49.8018	5,277.83	56.5183	5,277.83	54.118
5,463.87	84.3427	5,463.87	82.7788	5,463.87	84.681	5,463.87	78.9307	5,463.87	82.6459	5,463.87	76.1615	5,463.87	79.8343	5,463.87	74.5038	5,463.87	76.7621	5,463.87	73.6498	5,463.87	74.6885	5,463.87	71.8034	5,463.87	70.9355	5,463.87	69.0586	5,463.87	70	5,463.87	68.4592	5,463.87	69.1991	5,463.87	65.6573	5,463.87	68.7978	5,463.87	64.6693	5,463.87	64.7532	5,463.87	61.0189	5,463.87	63.3735	5,463.87	61.4891	5,463.87	61.3107	5,463.87	60.8243	5,463.87	58.77	5,463.87	55.0814	5,463.87	56.7583	5,463.87	58.2522	5,463.87	59.3155	5,463.87	57.4958	5,463.87	53.3258	5,463.87	36.4166	5,463.87	54.6199	5,463.87	50.8962
5,657.23	84.5964	5,657.23	82.6203	5,657.23	83.7941	5,657.23	78.5974	5,657.23	81.9277	5,657.23	74.3435	5,657.23	77.812	5,657.23	73.0063	5,657.23	74.3579	5,657.23	72.7911	5,657.23	72.049	5,657.23	70.4195	5,657.23	71.6171	5,657.23	69.7266	5,657.23	70.2962	5,657.23	66.4357	5,657.23	68.9821	5,657.23	65.1147	5,657.23	67.0462	5,657.23	64.3642	5,657.23	64.611	5,657.23	60.4745	5,657.23	61.7845	5,657.23	62.8685	5,657.23	59.8607	5,657.23	57.7754	5,657.23	60.304	5,657.23	55.5434	5,657.23	57.0507	5,657.23	60.7469	5,657.23	57.5409	5,657.23	55.7368	5,657.23	56.4583	5,657.23	45.1867	5,657.23	54.3495	5,657.23	50.9807
5,856.45	85.5344	5,856.45	83.0423	5,856.45	85.4943	5,856.45	79.0219	5,856.45	82.5672	5,856.45	74.2537	5,856.45	77.9602	5,856.45	72.2504	5,856.45	73.3308	5,856.45	71.1997	5,856.45	71.4046	5,856.45	71.5704	5,856.45	71.5566	5,856.45	69.7506	5,856.45	70.8996	5,856.45	67.349	5,856.45	69.3145	5,856.45	67.5629	5,856.45	65.4117	5,856.45	64.9714	5,856.45	64.0494	5,856.45	63.0046	5,856.45	61.0386	5,856.45	58.0688	5,856.45	60.1796	5,856.45	56.6061	5,856.45	59.0454	5,856.45	58.5426	5,856.45	55.8231	5,856.45	60.0045	5,856.45	57.796	5,856.45	55.5668	5,856.45	59.674	5,856.45	37.3959	5,856.45	54.1942	5,856.45	49.1178
6,062.99	86.5236	6,062.99	84.2778	6,062.99	86.4851	6,062.99	80.1434	6,062.99	83.3741	6,062.99	75.3597	6,062.99	78.9569	6,062.99	71.1162	6,062.99	74.6218	6,062.99	70.1975	6,062.99	72.3784	6,062.99	70.1654	6,062.99	70.4527	6,062.99	68.0697	6,062.99	69.6338	6,062.99	66.4715	6,062.99	67.7562	6,062.99	64.0011	6,062.99	65.734	6,062.99	62.512	6,062.99	63.1234	6,062.99	59.8657	6,062.99	62.3307	6,062.99	55.7743	6,062.99	58.832	6,062.99	58.5017	6,062.99	57.522	6,062.99	56.3097	6,062.99	56.0503	6,062.99	58.3677	6,062.99	54.5904	6,062.99	54.5546	6,062.99	54.6227	6,062.99	30.758	6,062.99	54.0894	6,062.99	45.9428
6,276.86	87.5585	6,276.86	85.62	6,276.86	86.991	6,276.86	81.4885	6,276.86	84.3715	6,276.86	77.015	6,276.86	79.9202	6,276.86	74.6333	6,276.86	75.9572	6,276.86	72.4199	6,276.86	72.5825	6,276.86	70.2557	6,276.86	71.1004	6,276.86	68.29	6,276.86	69.6947	6,276.86	66.429	6,276.86	67.4131	6,276.86	62.4778	6,276.86	64.8149	6,276.86	60.5664	6,276.86	63.1909	6,276.86	59.5747	6,276.86	60.1103	6,276.86	58.1317	6,276.86	59.6779	6,276.86	52.9631	6,276.86	59.0069	6,276.86	50.1948	6,276.86	57.0636	6,276.86	57.0222	6,276.86	48.8069	6,276.86	55.366	6,276.86	57.7788	6,276.86	48.5103	6,276.86	53.4655	6,276.86	42.5022
6,498.05	86.4175	6,498.05	84.3586	6,498.05	86.3755	6,498.05	80.8007	6,498.05	83.6131	6,498.05	77.5434	6,498.05	79.428	6,498.05	75.5591	6,498.05	75.1736	6,498.05	72.9692	6,498.05	72.7904	6,498.05	70.7714	6,498.05	70.3879	6,498.05	68.0364	6,498.05	67.7886	6,498.05	65.7283	6,498.05	64.9026	6,498.05	63.8276	6,498.05	62.4496	6,498.05	60.5105	6,498.05	60.052	6,498.05	58.7467	6,498.05	57.9124	6,498.05	58.0817	6,498.05	53.3496	6,498.05	56.5984	6,498.05	48.8518	6,498.05	54.5941	6,498.05	50.1397	6,498.05	53.9396	6,498.05	54.079	6,498.05	54.0963	6,498.05	53.0059	6,498.05	47.8909	6,498.05	51.7045	6,498.05	38.5907
6,726.56	86.1758	6,726.56	84.1598	6,726.56	85.8079	6,726.56	81.2483	6,726.56	82.4784	6,726.56	78.3717	6,726.56	78.4969	6,726.56	75.8946	6,726.56	76.29	6,726.56	74.1674	6,726.56	73.9513	6,726.56	71.6285	6,726.56	70.482	6,726.56	69.3303	6,726.56	67.0646	6,726.56	67.5993	6,726.56	64.1545	6,726.56	64.8333	6,726.56	63.1139	6,726.56	62.2716	6,726.56	59.2674	6,726.56	59.0107	6,726.56	57.1921	6,726.56	58.419	6,726.56	57.4892	6,726.56	57.5645	6,726.56	55.9941	6,726.56	55.0373	6,726.56	50.8415	6,726.56	54.2036	6,726.56	49.7772	6,726.56	54.7026	6,726.56	52.6625	6,726.56	48.6801	6,726.56	53.331	6,726.56	42.2692
6,963.87	87.1955	6,963.87	85.4782	6,963.87	86.2135	6,963.87	82.1094	6,963.87	83.2721	6,963.87	79.492	6,963.87	80.3343	6,963.87	77.7867	6,963.87	78.2863	6,963.87	74.9352	6,963.87	75.7948	6,963.87	72.3395	6,963.87	73.5758	6,963.87	69.7554	6,963.87	70.9518	6,963.87	66.7454	6,963.87	68.7943	6,963.87	64.064	6,963.87	64.7946	6,963.87	60.0503	6,963.87	62.3234	6,963.87	59.8554	6,963.87	61.5382	6,963.87	56.4298	6,963.87	57.8186	6,963.87	55.647	6,963.87	57.7308	6,963.87	55.3069	6,963.87	55.7089	6,963.87	54.8091	6,963.87	53.3277	6,963.87	53.7322	6,963.87	53.0527	6,963.87	34.6056	6,963.87	53.7143	6,963.87	37.1573
7,209.96	87.3112	7,209.96	85.3404	7,209.96	86.9326	7,209.96	82.6574	7,209.96	84.1025	7,209.96	80.5174	7,209.96	81.8216	7,209.96	78.3546	7,209.96	79.9309	7,209.96	75.4605	7,209.96	77.5695	7,209.96	72.4092	7,209.96	74.6281	7,209.96	69.3004	7,209.96	72.3735	7,209.96	66.1948	7,209.96	69.1944	7,209.96	63.8397	7,209.96	67.4296	7,209.96	62.0343	7,209.96	64.5758	7,209.96	59.5923	7,209.96	60.6458	7,209.96	55.9748	7,209.96	59.1084	7,209.96	57.0048	7,209.96	55.3782	7,209.96	55.9703	7,209.96	55.6122	7,209.96	53.603	7,209.96	56.4492	7,209.96	55.1305	7,209.96	57.0846	7,209.96	38.6807	7,209.96	53.3668	7,209.96	33.7583
7,464.84	87.0679	7,464.84	84.8661	7,464.84	86.6579	7,464.84	82.8939	7,464.84	84.3923	7,464.84	81.2367	7,464.84	82.6931	7,464.84	79.0648	7,464.84	80.8839	7,464.84	76.138	7,464.84	78.4572	7,464.84	73.4626	7,464.84	75.319	7,464.84	70.3302	7,464.84	72.8792	7,464.84	67.4109	7,464.84	70.6724	7,464.84	65.2405	7,464.84	68.2973	7,464.84	63.6605	7,464.84	65.7633	7,464.84	60.6631	7,464.84	63.1178	7,464.84	58.513	7,464.84	61.595	7,464.84	58.2208	7,464.84	60.0257	7,464.84	55.385	7,464.84	57.0678	7,464.84	56.0377	7,464.84	56.43	7,464.84	55.589	7,464.84	57.2295	7,464.84	42.2247	7,464.84	56.1892	7,464.84	41.9039
7,727.05	86.9669	7,727.05	85.0492	7,727.05	86.7146	7,727.05	83.5114	7,727.05	84.8628	7,727.05	81.7603	7,727.05	83.7867	7,727.05	78.8689	7,727.05	81.7124	7,727.05	75.8405	7,727.05	78.4265	7,727.05	73.1729	7,727.05	76.1888	7,727.05	70.8924	7,727.05	73.5033	7,727.05	69.0952	7,727.05	71.3589	7,727.05	65.6278	7,727.05	68.3623	7,727.05	64.1773	7,727.05	66.0566	7,727.05	61.4386	7,727.05	63.8418	7,727.05	60.104	7,727.05	59.7779	7,727.05	58.0391	7,727.05	59.0866	7,727.05	55.9658	7,727.05	57.3539	7,727.05	56.8034	7,727.05	57.432	7,727.05	55.1025	7,727.05	57.5214	7,727.05	47.9936	7,727.05	56.7149	7,727.05	36.1371
7,999.51	86.2096	7,999.51	85.1745	7,999.51	86.1292	7,999.51	84.5986	7,999.51	84.8614	7,999.51	82.664	7,999.51	84.0747	7,999.51	79.5919	7,999.51	82.0712	7,999.51	75.6991	7,999.51	79.4606	7,999.51	73.0737	7,999.51	75.6193	7,999.51	70.4731	7,999.51	73.6684	7,999.51	68.3463	7,999.51	71.5181	7,999.51	65.8877	7,999.51	68.7532	7,999.51	63.2332	7,999.51	66.1674	7,999.51	60.2267	7,999.51	62.0844	7,999.51	59.242	7,999.51	61.9073	7,999.51	59.2248	7,999.51	60.4465	7,999.51	51.9562	7,999.51	58.6657	7,999.51	54.9973	7,999.51	55.6562	7,999.51	55.9433	7,999.51	59.0747	7,999.51	47.8298	7,999.51	53.3073	7,999.51	37.1757
8,282.23	85.2119	8,282.23	84.6434	8,282.23	84.9875	8,282.23	84.9084	8,282.23	84.7159	8,282.23	82.9883	8,282.23	84.7635	8,282.23	79.4527	8,282.23	82.1951	8,282.23	75.4997	8,282.23	78.075	8,282.23	73.0631	8,282.23	75.3652	8,282.23	71.3323	8,282.23	73.5758	8,282.23	69.1748	8,282.23	71.6561	8,282.23	66.4892	8,282.23	68.3386	8,282.23	63.6861	8,282.23	66.5721	8,282.23	60.8351	8,282.23	63.7358	8,282.23	55.1503	8,282.23	61.0894	8,282.23	60.9425	8,282.23	56.8094	8,282.23	57.3332	8,282.23	58.3163	8,282.23	54.7563	8,282.23	55.4927	8,282.23	57.656	8,282.23	59.6553	8,282.23	47.9342	8,282.23	56.4817	8,282.23	46.329
8,573.73	80.8224	8,573.73	84.028	8,573.73	81.459	8,573.73	85.3954	8,573.73	85.0301	8,573.73	82.3042	8,573.73	85.2913	8,573.73	77.4742	8,573.73	81.395	8,573.73	73.522	8,573.73	76.4828	8,573.73	72.1302	8,573.73	73.5208	8,573.73	71.5398	8,573.73	72.2461	8,573.73	69.5075	8,573.73	69.9396	8,573.73	65.8475	8,573.73	68.1485	8,573.73	64.1346	8,573.73	65.5011	8,573.73	61.1307	8,573.73	63.6559	8,573.73	59.0443	8,573.73	60.9974	8,573.73	60.454	8,573.73	58.9907	8,573.73	58.3256	8,573.73	58.4869	8,573.73	57.2127	8,573.73	57.1679	8,573.73	58.1665	8,573.73	59.5111	8,573.73	50.0325	8,573.73	55.5239	8,573.73	45.1008
8,876.95	76.9524	8,876.95	83.7413	8,876.95	79.352	8,876.95	85.0338	8,876.95	84.7502	8,876.95	82.0857	8,876.95	84.8706	8,876.95	76.9681	8,876.95	81.5789	8,876.95	73.4584	8,876.95	76.8266	8,876.95	71.3797	8,876.95	74.3906	8,876.95	69.1999	8,876.95	73.043	8,876.95	67.2302	8,876.95	70.1322	8,876.95	65.0333	8,876.95	67.8162	8,876.95	60.2396	8,876.95	63.7634	8,876.95	60.1393	8,876.95	61.1221	8,876.95	56.3593	8,876.95	59.4548	8,876.95	56.5174	8,876.95	56.1458	8,876.95	52.9531	8,876.95	59.8444	8,876.95	52.3569	8,876.95	50.4685	8,876.95	54.0815	8,876.95	53.5475	8,876.95	47.4371	8,876.95	51.9184	8,876.95	35.3608
9,188.96	83.1115	9,188.96	86.4331	9,188.96	83.072	9,188.96	85.7001	9,188.96	85.8435	9,188.96	80.1119	9,188.96	84.8466	9,188.96	74.7803	9,188.96	79.9705	9,188.96	73.3449	9,188.96	75.8858	9,188.96	72.0587	9,188.96	74.0092	9,188.96	70.7836	9,188.96	71.8448	9,188.96	67.9855	9,188.96	70.4648	9,188.96	66.3129	9,188.96	68.7392	9,188.96	63.3375	9,188.96	65.831	9,188.96	60.6504	9,188.96	62.8858	9,188.96	57.8355	9,188.96	59.2538	9,188.96	53.1842	9,188.96	57.7045	9,188.96	56.7348	9,188.96	61.0409	9,188.96	53.8851	9,188.96	54.0563	9,188.96	54.9038	9,188.96	55.8051	9,188.96	54.4923	9,188.96	56.7449	9,188.96	38.9379
9,514.16	86.2107	9,514.16	86.2802	9,514.16	86.5714	9,514.16	84.3907	9,514.16	86.242	9,514.16	79.8672	9,514.16	83.5936	9,514.16	78.8172	9,514.16	79.5489	9,514.16	77.5457	9,514.16	78.1915	9,514.16	74.7215	9,514.16	76.8772	9,514.16	70.947	9,514.16	74.7599	9,514.16	68.349	9,514.16	71.9068	9,514.16	64.262	9,514.16	67.8629	9,514.16	60.7208	9,514.16	64.8114	9,514.16	58.2077	9,514.16	60.6796	9,514.16	55.8424	9,514.16	58.8198	9,514.16	53.9432	9,514.16	56.2212	9,514.16	50.451	9,514.16	53.4282	9,514.16	46.1102	9,514.16	52.391	9,514.16	52.7415	9,514.16	50.6247	9,514.16	53.0883	9,514.16	51.9911	9,514.16	45.0319
9,849.61	86.0239	9,849.61	84.2262	9,849.61	86.2336	9,849.61	80.5996	9,849.61	84.6388	9,849.61	79.3174	9,849.61	81.2353	9,849.61	81.1268	9,849.61	80.1706	9,849.61	80.3698	9,849.61	80.8998	9,849.61	77.8009	9,849.61	79.5899	9,849.61	74.2894	9,849.61	76.834	9,849.61	69.8728	9,849.61	72.4834	9,849.61	65.258	9,849.61	68.0072	9,849.61	62.4993	9,849.61	64.1205	9,849.61	58.5013	9,849.61	59.7022	9,849.61	54.7247	9,849.61	56.0336	9,849.61	50.6114	9,849.61	51.2627	9,849.61	53.498	9,849.61	53.8051	9,849.61	47.7973	9,849.61	45.7873	9,849.61	52.3515	9,849.61	48.1695	9,849.61	50.7681	9,849.61	49.8179	9,849.61	39.5798
10,196.8	84.2343	10,196.8	84.1361	10,196.8	84.5728	10,196.8	81.4532	10,196.8	83.7255	10,196.8	79.9804	10,196.8	80.7586	10,196.8	79.7303	10,196.8	79.7923	10,196.8	78.0964	10,196.8	79.2449	10,196.8	75.0923	10,196.8	77.7062	10,196.8	71.3828	10,196.8	74.6768	10,196.8	68.234	10,196.8	70.1928	10,196.8	63.7455	10,196.8	66.9783	10,196.8	59.7212	10,196.8	62.4703	10,196.8	59.147	10,196.8	60.3342	10,196.8	55.9403	10,196.8	56.4646	10,196.8	55.5389	10,196.8	54.8949	10,196.8	51.9466	10,196.8	54.9535	10,196.8	48.9389	10,196.8	51.3443	10,196.8	51.3389	10,196.8	51.5453	10,196.8	52.0444	10,196.8	48.6659	10,196.8	14.6717
10,555.7	84.4264	10,555.7	84.0181	10,555.7	84.3626	10,555.7	81.7913	10,555.7	83.6014	10,555.7	80.2033	10,555.7	81.2502	10,555.7	79.3761	10,555.7	80.5094	10,555.7	76.6916	10,555.7	79.1065	10,555.7	73.1983	10,555.7	76.0931	10,555.7	70.3742	10,555.7	73.0784	10,555.7	66.8159	10,555.7	69.64	10,555.7	63.3949	10,555.7	66.113	10,555.7	61.1044	10,555.7	62.6889	10,555.7	59.6006	10,555.7	58.7159	10,555.7	55.6028	10,555.7	56.8455	10,555.7	51.4252	10,555.7	56.5281	10,555.7	47.4846	10,555.7	56.0043	10,555.7	48.4251	10,555.7	48.4193	10,555.7	52.9535	10,555.7	52.7959	10,555.7	53.1148	10,555.7	49.9405	10,555.7	37.5937
10,927.7	84.0552	10,927.7	83.5737	10,927.7	83.97	10,927.7	81.792	10,927.7	83.0058	10,927.7	80.9271	10,927.7	81.5086	10,927.7	79.2613	10,927.7	80.9415	10,927.7	76.4416	10,927.7	78.7915	10,927.7	72.9765	10,927.7	76.1358	10,927.7	69.965	10,927.7	73.6211	10,927.7	67.1794	10,927.7	69.8703	10,927.7	63.0244	10,927.7	66.6466	10,927.7	60.9998	10,927.7	62.4076	10,927.7	58.014	10,927.7	59.8343	10,927.7	54.876	10,927.7	58.8889	10,927.7	52.6891	10,927.7	54.0312	10,927.7	48.506	10,927.7	54.3112	10,927.7	51.7078	10,927.7	45.9936	10,927.7	51.3895	10,927.7	51.42	10,927.7	52.1341	10,927.7	51.0513	10,927.7	43.6776
11,313	83.9331	11,313	82.9658	11,313	83.7189	11,313	82.196	11,313	82.5318	11,313	80.9323	11,313	82.2967	11,313	78.4678	11,313	80.9612	11,313	75.5295	11,313	78.1863	11,313	73.4563	11,313	75.6162	11,313	70.8621	11,313	73.3002	11,313	67.5442	11,313	70.4677	11,313	63.3895	11,313	66.7861	11,313	60.4469	11,313	63.4495	11,313	58.4856	11,313	59.6489	11,313	50.2459	11,313	56.3177	11,313	54.8486	11,313	55.6053	11,313	48.4379	11,313	54.6308	11,313	47.1143	11,313	47.4399	11,313	50.1995	11,313	50.6744	11,313	50.7714	11,313	50.8759	11,313	31.1246
11,712.9	84.4788	11,712.9	81.4722	11,712.9	83.9493	11,712.9	81.8895	11,712.9	81.4938	11,712.9	81.1798	11,712.9	82.2373	11,712.9	77.8025	11,712.9	80.3231	11,712.9	75.2527	11,712.9	76.7968	11,712.9	73.318	11,712.9	74.713	11,712.9	70.8939	11,712.9	72.8108	11,712.9	66.9526	11,712.9	69.6996	11,712.9	62.9055	11,712.9	65.9414	11,712.9	60.5979	11,712.9	61.8833	11,712.9	57.0061	11,712.9	58.6966	11,712.9	53.8546	11,712.9	56.7295	11,712.9	50.7917	11,712.9	52.7069	11,712.9	51.8119	11,712.9	51.4126	11,712.9	51.6648	11,712.9	34.4033	11,712.9	45.0376	11,712.9	53.6841	11,712.9	54.2226	11,712.9	44.6407	11,712.9	34.3575
12,126	85.2498	12,126	81.351	12,126	84.6553	12,126	81.0868	12,126	80.9309	12,126	79.0194	12,126	81.4264	12,126	76.0075	12,126	79.1817	12,126	75.3568	12,126	76.4194	12,126	73.185	12,126	75.4289	12,126	69.7243	12,126	73.097	12,126	65.5425	12,126	69.0699	12,126	61.8019	12,126	65.4243	12,126	59.2031	12,126	61.3451	12,126	56.6131	12,126	57.8435	12,126	54.7152	12,126	56.6999	12,126	52.3238	12,126	53.805	12,126	48.0303	12,126	52.1402	12,126	48.5595	12,126	43.7339	12,126	46.1956	12,126	47.7564	12,126	45.1611	12,126	45.5647	12,126	35.8698
12,553.7	86.2817	12,553.7	81.857	12,553.7	85.6312	12,553.7	80.2092	12,553.7	81.2993	12,553.7	78.7393	12,553.7	80.4552	12,553.7	77.0885	12,553.7	78.6959	12,553.7	74.5315	12,553.7	76.8893	12,553.7	70.7129	12,553.7	74.6385	12,553.7	66.9317	12,553.7	71.2506	12,553.7	63.226	12,553.7	66.6675	12,553.7	60.542	12,553.7	63.2729	12,553.7	57.5024	12,553.7	60.532	12,553.7	55.8628	12,553.7	56.8748	12,553.7	51.6732	12,553.7	53.5131	12,553.7	52.32	12,553.7	51.6528	12,553.7	43.905	12,553.7	48.5859	12,553.7	47.6369	12,553.7	45.8184	12,553.7	40.8671	12,553.7	43.2923	12,553.7	41.5368	12,553.7	41.5612	12,553.7	26.1951
12,996.1	86.5277	12,996.1	82.0642	12,996.1	86.1638	12,996.1	79.5901	12,996.1	82.0659	12,996.1	78.4775	12,996.1	80.505	12,996.1	77.0624	12,996.1	79.2656	12,996.1	73.2262	12,996.1	77.1078	12,996.1	66.7861	12,996.1	73.2822	12,996.1	62.3491	12,996.1	68.6059	12,996.1	58.4033	12,996.1	63.6611	12,996.1	56.4283	12,996.1	61.0486	12,996.1	53.0444	12,996.1	57.0412	12,996.1	50.1713	12,996.1	53.2579	12,996.1	46.871	12,996.1	52.1373	12,996.1	45.9627	12,996.1	51.3786	12,996.1	40.4075	12,996.1	44.2772	12,996.1	40.3736	12,996.1	43.7798	12,996.1	27.7328	12,996.1	44.4905	12,996.1	27.2744	12,996.1	27.5419	12,996.1	28.6819
13,454.6	85.7126	13,454.6	81.663	13,454.6	85.4241	13,454.6	80.1104	13,454.6	82.0042	13,454.6	77.763	13,454.6	80.5665	13,454.6	74.5772	13,454.6	78.8128	13,454.6	70.0575	13,454.6	75.855	13,454.6	66.1139	13,454.6	71.1413	13,454.6	64.4451	13,454.6	66.2569	13,454.6	62.0422	13,454.6	63.2281	13,454.6	58.6033	13,454.6	60.1037	13,454.6	55.157	13,454.6	57.3134	13,454.6	52.8774	13,454.6	53.5133	13,454.6	50.5725	13,454.6	49.3435	13,454.6	46.5525	13,454.6	43.7152	13,454.6	46.5461	13,454.6	46.0755	13,454.6	42.2933	13,454.6	42.491	13,454.6	35.891	13,454.6	40.1126	13,454.6	40.379	13,454.6	31.9269	13,454.6	38.82
13,929.2	84.6077	13,929.2	81.286	13,929.2	84.2479	13,929.2	79.7891	13,929.2	81.8514	13,929.2	78.744	13,929.2	80.8103	13,929.2	75.6653	13,929.2	79.0532	13,929.2	70.7379	13,929.2	74.0073	13,929.2	69.4301	13,929.2	68.7664	13,929.2	68.2147	13,929.2	68.0185	13,929.2	64.6303	13,929.2	65.9952	13,929.2	61.478	13,929.2	62.9228	13,929.2	57.3502	13,929.2	58.6706	13,929.2	55.1567	13,929.2	54.0285	13,929.2	50.9371	13,929.2	53.5318	13,929.2	50.3276	13,929.2	49.6367	13,929.2	46.5881	13,929.2	48.9356	13,929.2	42.4305	13,929.2	45.5444	13,929.2	41.6963	13,929.2	36.9348	13,929.2	43.0256	13,929.2	38.6922	13,929.2	34.3604
14,419.9	81.7001	14,419.9	82.1327	14,419.9	81.4302	14,419.9	80.7352	14,419.9	82.5315	14,419.9	79.9208	14,419.9	81.248	14,419.9	76.7181	14,419.9	79.9726	14,419.9	74.3464	14,419.9	75.3164	14,419.9	73.3848	14,419.9	73.8637	14,419.9	70.2447	14,419.9	72.3965	14,419.9	66.7782	14,419.9	68.5844	14,419.9	62.278	14,419.9	64.6537	14,419.9	58.5495	14,419.9	59.7921	14,419.9	54.9181	14,419.9	56.052	14,419.9	52.0118	14,419.9	54.4817	14,419.9	51.0402	14,419.9	51.6404	14,419.9	40.2573	14,419.9	49.0924	14,419.9	44.496	14,419.9	48.8161	14,419.9	39.7166	14,419.9	41.6372	14,419.9	48.9348	14,419.9	42.8176	14,419.9	35.66
14,928.2	78.5635	14,928.2	83.4581	14,928.2	80.1054	14,928.2	81.1556	14,928.2	83.3752	14,928.2	80.8478	14,928.2	81.6154	14,928.2	77.781	14,928.2	80.73	14,928.2	76.8689	14,928.2	77.0959	14,928.2	74.6754	14,928.2	76.2554	14,928.2	70.9921	14,928.2	74.0322	14,928.2	67.0289	14,928.2	69.4984	14,928.2	62.236	14,928.2	66.082	14,928.2	59.7706	14,928.2	60.8247	14,928.2	57.0351	14,928.2	58.0223	14,928.2	53.9105	14,928.2	56.0908	14,928.2	51.6143	14,928.2	50.8322	14,928.2	49.0762	14,928.2	46.8469	14,928.2	46.0824	14,928.2	47.0495	14,928.2	45.8378	14,928.2	38.3536	14,928.2	50.0682	14,928.2	35.1229	14,928.2	43.8422
15,455.6	78.2455	15,455.6	83.8465	15,455.6	80.6044	15,455.6	81.5256	15,455.6	83.4074	15,455.6	81.5468	15,455.6	82.2296	15,455.6	79.816	15,455.6	81.3494	15,455.6	77.9272	15,455.6	78.6755	15,455.6	74.1319	15,455.6	77.0636	15,455.6	69.8187	15,455.6	73.4754	15,455.6	66.4544	15,455.6	68.9179	15,455.6	62.4934	15,455.6	65.7538	15,455.6	59.553	15,455.6	60.9501	15,455.6	57.5658	15,455.6	58.668	15,455.6	54.5931	15,455.6	58.0363	15,455.6	51.093	15,455.6	56.3037	15,455.6	49.2215	15,455.6	48.6103	15,455.6	44.1601	15,455.6	51.8554	15,455.6	43.4828	15,455.6	42.58	15,455.6	51.2473	15,455.6	33.8072	15,455.6	42.2734
16,000.5	76.6612	16,000.5	82.4923	16,000.5	80.2662	16,000.5	82.4705	16,000.5	83.3383	16,000.5	81.9301	16,000.5	83.0096	16,000.5	80.8637	16,000.5	81.5635	16,000.5	76.8138	16,000.5	80.2009	16,000.5	72.9794	16,000.5	75.815	16,000.5	71.0643	16,000.5	71.674	16,000.5	68.0065	16,000.5	69.0125	16,000.5	63.1783	16,000.5	65.4109	16,000.5	60.3656	16,000.5	61.0413	16,000.5	57.6587	16,000.5	58.4722	16,000.5	54.3567	16,000.5	55.6161	16,000.5	50.8678	16,000.5	54.5284	16,000.5	51.4968	16,000.5	48.9422	16,000.5	40.6334	16,000.5	51.6352	16,000.5	42.8845	16,000.5	48.8447	16,000.5	53.4803	16,000.5	42.8125	16,000.5	42.7858
16,564.5	81.595	16,564.5	83.2749	16,564.5	81.7104	16,564.5	83.4967	16,564.5	83.9357	16,564.5	81.3034	16,564.5	83.3606	16,564.5	79.8781	16,564.5	81.5086	16,564.5	75.7544	16,564.5	78.323	16,564.5	72.5394	16,564.5	74.2528	16,564.5	69.6798	16,564.5	72.4225	16,564.5	65.3996	16,564.5	68.2138	16,564.5	59.7584	16,564.5	63.355	16,564.5	56.6989	16,564.5	58.0067	16,564.5	52.0969	16,564.5	55.3748	16,564.5	49.2614	16,564.5	52.8639	16,564.5	46.8634	16,564.5	51.3966	16,564.5	48.5546	16,564.5	42.7261	16,564.5	37.7033	16,564.5	49.5158	16,564.5	42.5184	16,564.5	47.9819	16,564.5	50.4103	16,564.5	45.1388	16,564.5	33.0304
17,148.9	84.3842	17,148.9	83.3903	17,148.9	84.2655	17,148.9	84.3954	17,148.9	84.1597	17,148.9	82.5981	17,148.9	84.4321	17,148.9	80.15	17,148.9	82.7852	17,148.9	75.7221	17,148.9	79.4716	17,148.9	73.5235	17,148.9	75.8347	17,148.9	69.7578	17,148.9	73.7288	17,148.9	63.9021	17,148.9	68.2641	17,148.9	56.8767	17,148.9	63.5961	17,148.9	53.7257	17,148.9	59.3444	17,148.9	50.9656	17,148.9	56.1611	17,148.9	49.5626	17,148.9	53.1624	17,148.9	48.2778	17,148.9	53.1906	17,148.9	47.6923	17,148.9	40.2841	17,148.9	39.0094	17,148.9	50.0871	17,148.9	44.2749	17,148.9	45.2289	17,148.9	49.3633	17,148.9	40.1559	17,148.9	40.4192
17,752.4	86.4885	17,752.4	83.888	17,752.4	86.2831	17,752.4	85.3774	17,752.4	85.0777	17,752.4	83.8133	17,752.4	85.9133	17,752.4	80.5511	17,752.4	83.789	17,752.4	77.5934	17,752.4	79.6135	17,752.4	74.4367	17,752.4	77.302	17,752.4	69.66	17,752.4	74.3345	17,752.4	63.226	17,752.4	67.5646	17,752.4	58.4075	17,752.4	62.4662	17,752.4	55.0176	17,752.4	59.0222	17,752.4	52.2146	17,752.4	55.5583	17,752.4	51.2069	17,752.4	51.2814	17,752.4	50.6321	17,752.4	50.7758	17,752.4	49.3149	17,752.4	43.5831	17,752.4	44.4053	17,752.4	51.4436	17,752.4	45.4085	17,752.4	42.0476	17,752.4	48.2625	17,752.4	45.5274	17,752.4	32.4684
18,379.4	87.3883	18,379.4	85.582	18,379.4	87.0803	18,379.4	85.2085	18,379.4	86.0386	18,379.4	82.7706	18,379.4	85.1396	18,379.4	79.895	18,379.4	82.1801	18,379.4	76.6334	18,379.4	78.2801	18,379.4	71.7497	18,379.4	74.4535	18,379.4	66.3185	18,379.4	69.0593	18,379.4	60.8881	18,379.4	60.3936	18,379.4	55.7891	18,379.4	58.1745	18,379.4	52.481	18,379.4	54.014	18,379.4	49.1832	18,379.4	50.8644	18,379.4	47.7348	18,379.4	45.2161	18,379.4	47.9311	18,379.4	46.4838	18,379.4	44.9933	18,379.4	38.7292	18,379.4	46.4374	18,379.4	45.8458	18,379.4	41.7887	18,379.4	33.2346	18,379.4	47.9045	18,379.4	40.6808	18,379.4	40.1609
19,026.9	86.6883	19,026.9	85.805	19,026.9	86.5741	19,026.9	84.3877	19,026.9	85.7516	19,026.9	81.0769	19,026.9	83.8366	19,026.9	78.1222	19,026.9	80.0552	19,026.9	73.8051	19,026.9	75.393	19,026.9	66.3816	19,026.9	68.693	19,026.9	60.9787	19,026.9	63.7455	19,026.9	55.7526	19,026.9	59.0188	19,026.9	52.0449	19,026.9	58.1027	19,026.9	48.1047	19,026.9	53.2246	19,026.9	42.2365	19,026.9	48.6145	19,026.9	42.857	19,026.9	40.0226	19,026.9	42.7693	19,026.9	39.4263	19,026.9	35.5165	19,026.9	31.4338	19,026.9	47.2475	19,026.9	45.3526	19,026.9	37.201	19,026.9	33.8882	19,026.9	46.8004	19,026.9	42.8437	19,026.9	44.4384
19,697.8	84.8018	19,697.8	84.7731	19,697.8	84.55	19,697.8	83.2824	19,697.8	84.2657	19,697.8	80.1334	19,697.8	82.2852	19,697.8	76.8258	19,697.8	78.8318	19,697.8	71.0832	19,697.8	74.821	19,697.8	63.1657	19,697.8	69.1654	19,697.8	61.306	19,697.8	66.8828	19,697.8	57.1357	19,697.8	61.7035	19,697.8	51.0183	19,697.8	59.8357	19,697.8	47.7563	19,697.8	53.9838	19,697.8	48.3453	19,697.8	49.5882	19,697.8	43.9349	19,697.8	42.7574	19,697.8	33.0111	19,697.8	43.1535	19,697.8	22.3787	19,697.8	36.5713	19,697.8	47.4265	19,697.8	46.4848	19,697.8	32.1369	19,697.8	39.7537	19,697.8	47.3677	19,697.8	44.8547	19,697.8	44.4287
19,999.5	83.51	19,999.5	84.4389	19,999.5	82.9644	19,999.5	82.352	19,999.5	83.5327	19,999.5	79.7548	19,999.5	81.7315	19,999.5	76.5449	19,999.5	78.532	19,999.5	69.0998	19,999.5	75.029	19,999.5	63.4677	19,999.5	69.5882	19,999.5	60.6094	19,999.5	68.2907	19,999.5	59.0185	19,999.5	60.7212	19,999.5	54.8903	19,999.5	60.1471	19,999.5	49.1965	19,999.5	53.9092	19,999.5	55.4646	19,999.5	46.6113	19,999.5	45.5374	19,999.5	39.8112	19,999.5	45.4516	19,999.5	54.4843	19,999.5	52.5519	19,999.5	48.9064	19,999.5	44.3934	19,999.5	49.6635	19,999.5	50.0619	19,999.5	42.4824	19,999.5	56.5857	19,999.5	49.61	19,999.5	50.2228
