"SPL Vertical"
"On-Axis"		"10°"		"-10°"		"20°"		"-20°"		"30°"		"-30°"		"40°"		"-40°"		"50°"		"-50°"		"60°"		"-60°"		"70°"		"-70°"		"80°"		"-80°"		"90°"		"-90°"		"100°"		"-100°"		"110°"		"-110°"		"120°"		"-120°"		"130°"		"-130°"		"140°"		"-140°"		"150°"		"-150°"		"160°"		"-160°"		"170°"		"-170°"		"180°"
"Frequency / Hz"	"Sound Pressure Level / dB (re 20 µPa/V)  [2.83V at 1m]"	"Frequency / Hz"	"Sound Pressure Level / dB (re 20 µPa/V)  [2.83V at 1m]"	"Frequency / Hz"	"Sound Pressure Level / dB (re 20 µPa/V)  [2.83V at 1m]"	"Frequency / Hz"	"Sound Pressure Level / dB (re 20 µPa/V)  [2.83V at 1m]"	"Frequency / Hz"	"Sound Pressure Level / dB (re 20 µPa/V)  [2.83V at 1m]"	"Frequency / Hz"	"Sound Pressure Level / dB (re 20 µPa/V)  [2.83V at 1m]"	"Frequency / Hz"	"Sound Pressure Level / dB (re 20 µPa/V)  [2.83V at 1m]"	"Frequency / Hz"	"Sound Pressure Level / dB (re 20 µPa/V)  [2.83V at 1m]"	"Frequency / Hz"	"Sound Pressure Level / dB (re 20 µPa/V)  [2.83V at 1m]"	"Frequency / Hz"	"Sound Pressure Level / dB (re 20 µPa/V)  [2.83V at 1m]"	"Frequency / Hz"	"Sound Pressure Level / dB (re 20 µPa/V)  [2.83V at 1m]"	"Frequency / Hz"	"Sound Pressure Level / dB (re 20 µPa/V)  [2.83V at 1m]"	"Frequency / Hz"	"Sound Pressure Level / dB (re 20 µPa/V)  [2.83V at 1m]"	"Frequency / Hz"	"Sound Pressure Level / dB (re 20 µPa/V)  [2.83V at 1m]"	"Frequency / Hz"	"Sound Pressure Level / dB (re 20 µPa/V)  [2.83V at 1m]"	"Frequency / Hz"	"Sound Pressure Level / dB (re 20 µPa/V)  [2.83V at 1m]"	"Frequency / Hz"	"Sound Pressure Level / dB (re 20 µPa/V)  [2.83V at 1m]"	"Frequency / Hz"	"Sound Pressure Level / dB (re 20 µPa/V)  [2.83V at 1m]"	"Frequency / Hz"	"Sound Pressure Level / dB (re 20 µPa/V)  [2.83V at 1m]"	"Frequency / Hz"	"Sound Pressure Level / dB (re 20 µPa/V)  [2.83V at 1m]"	"Frequency / Hz"	"Sound Pressure Level / dB (re 20 µPa/V)  [2.83V at 1m]"	"Frequency / Hz"	"Sound Pressure Level / dB (re 20 µPa/V)  [2.83V at 1m]"	"Frequency / Hz"	"Sound Pressure Level / dB (re 20 µPa/V)  [2.83V at 1m]"	"Frequency / Hz"	"Sound Pressure Level / dB (re 20 µPa/V)  [2.83V at 1m]"	"Frequency / Hz"	"Sound Pressure Level / dB (re 20 µPa/V)  [2.83V at 1m]"	"Frequency / Hz"	"Sound Pressure Level / dB (re 20 µPa/V)  [2.83V at 1m]"	"Frequency / Hz"	"Sound Pressure Level / dB (re 20 µPa/V)  [2.83V at 1m]"	"Frequency / Hz"	"Sound Pressure Level / dB (re 20 µPa/V)  [2.83V at 1m]"	"Frequency / Hz"	"Sound Pressure Level / dB (re 20 µPa/V)  [2.83V at 1m]"	"Frequency / Hz"	"Sound Pressure Level / dB (re 20 µPa/V)  [2.83V at 1m]"	"Frequency / Hz"	"Sound Pressure Level / dB (re 20 µPa/V)  [2.83V at 1m]"	"Frequency / Hz"	"Sound Pressure Level / dB (re 20 µPa/V)  [2.83V at 1m]"	"Frequency / Hz"	"Sound Pressure Level / dB (re 20 µPa/V)  [2.83V at 1m]"	"Frequency / Hz"	"Sound Pressure Level / dB (re 20 µPa/V)  [2.83V at 1m]"	"Frequency / Hz"	"Sound Pressure Level / dB (re 20 µPa/V)  [2.83V at 1m]"	"Frequency / Hz"	"Sound Pressure Level / dB (re 20 µPa/V)  [2.83V at 1m]"
20.5078	56.7032	20.5078	57.3905	20.5078	55.9047	20.5078	57.9531	20.5078	55.0789	20.5078	58.4015	20.5078	54.4545	20.5078	58.7525	20.5078	54.3948	20.5078	59.0221	20.5078	55.0659	20.5078	59.2241	20.5078	56.1316	20.5078	59.3697	20.5078	57.0565	20.5078	59.4678	20.5078	57.4619	20.5078	59.525	20.5078	57.1933	20.5078	59.5465	20.5078	56.3553	20.5078	59.5355	20.5078	55.4215	20.5078	59.4942	20.5078	55.0855	20.5078	59.4231	20.5078	55.5246	20.5078	59.3213	20.5078	56.3016	20.5078	59.186	20.5078	57.0536	20.5078	59.012	20.5078	57.6667	20.5078	58.7903	20.5078	58.1417	20.5078	58.5071
21.9727	56.8212	21.9727	57.9229	21.9727	55.3061	21.9727	58.7374	21.9727	53.1798	21.9727	59.345	21.9727	50.2219	21.9727	59.7983	21.9727	47.1884	21.9727	60.1327	21.9727	48.1533	21.9727	60.3725	21.9727	51.4916	21.9727	60.535	21.9727	53.8523	21.9727	60.6322	21.9727	54.8903	21.9727	60.6721	21.9727	54.6492	21.9727	60.66	21.9727	53.1982	21.9727	60.598	21.9727	50.9755	21.9727	60.4861	21.9727	49.7956	21.9727	60.3214	21.9727	51.1756	21.9727	60.0983	21.9727	53.3336	21.9727	59.8072	21.9727	55.142	21.9727	59.4335	21.9727	56.515	21.9727	58.9561	21.9727	57.5519	21.9727	58.3439
23.4375	58.6097	23.4375	59.6566	23.4375	57.1701	23.4375	60.4267	23.4375	55.1685	23.4375	60.9961	23.4375	52.4542	23.4375	61.4157	23.4375	49.7387	23.4375	61.7203	23.4375	50.2736	23.4375	61.9341	23.4375	53.1752	23.4375	62.0737	23.4375	55.4147	23.4375	62.1509	23.4375	56.4889	23.4375	62.1737	23.4375	56.4469	23.4375	62.1468	23.4375	55.4388	23.4375	62.0727	23.4375	53.9277	23.4375	61.9513	23.4375	53.0761	23.4375	61.7802	23.4375	53.8149	23.4375	61.5542	23.4375	55.3812	23.4375	61.2647	23.4375	56.9016	23.4375	60.8988	23.4375	58.1381	23.4375	60.437	23.4375	59.1024	23.4375	59.8513
24.9023	58.1194	24.9023	59.4453	24.9023	56.1945	24.9023	60.3853	24.9023	53.2505	24.9023	61.0591	24.9023	48.5002	24.9023	61.5396	24.9023	45.474	24.9023	61.8735	24.9023	51.2312	24.9023	62.0921	24.9023	55.4518	24.9023	62.2166	24.9023	57.8679	24.9023	62.261	24.9023	58.9716	24.9023	62.234	24.9023	58.9426	24.9023	62.1404	24.9023	57.8353	24.9023	61.9812	24.9023	55.6467	24.9023	61.7541	24.9023	52.4095	24.9023	61.4528	24.9023	49.1872	24.9023	61.0666	24.9023	49.7166	24.9023	60.5787	24.9023	52.6034	24.9023	59.9636	24.9023	55.0511	24.9023	59.1824	24.9023	56.8466	24.9023	58.1748
26.3672	57.2148	26.3672	58.9615	26.3672	54.5872	26.3672	60.1774	26.3672	50.3928	26.3672	61.0433	26.3672	46.1469	26.3672	61.6622	26.3672	51.2059	26.3672	62.0972	26.3672	56.1196	26.3672	62.3893	26.3672	59.2483	26.3672	62.5654	26.3672	61.1556	26.3672	62.6433	26.3672	62.0689	26.3672	62.6341	26.3672	62.0629	26.3672	62.5436	26.3672	61.1578	26.3672	62.3729	26.3672	59.3307	26.3672	62.1183	26.3672	56.4499	26.3672	61.7705	26.3672	52.156	26.3672	61.3131	26.3672	46.8627	26.3672	60.7197	26.3672	48.4423	26.3672	59.9482	26.3672	52.7416	26.3672	58.931	26.3672	55.6177	26.3672	57.5546
27.832	57.8729	27.832	59.7949	27.832	55.1297	27.832	61.1505	27.832	51.8948	27.832	62.122	27.832	52.3545	27.832	62.8213	27.832	56.4723	27.832	63.3186	27.832	59.9719	27.832	63.6592	27.832	62.4252	27.832	63.8729	27.832	63.9795	27.832	63.9792	27.832	64.7077	27.832	63.9901	27.832	64.6267	27.832	63.9117	27.832	63.7377	27.832	63.745	27.832	62.0353	27.832	63.4854	27.832	59.4734	27.832	63.1225	27.832	55.9293	27.832	62.6381	27.832	51.6801	27.832	62.0032	27.832	50.5671	27.832	61.1726	27.832	53.6849	27.832	60.0751	27.832	56.547	27.832	58.5956
29.2969	61.2708	29.2969	62.6419	29.2969	59.5555	29.2969	63.6837	29.2969	57.8283	29.2969	64.4626	29.2969	57.3886	29.2969	65.037	29.2969	59.1351	29.2969	65.4499	29.2969	61.6486	29.2969	65.732	29.2969	63.7943	29.2969	65.9046	29.2969	65.2719	29.2969	65.9822	29.2969	66.0163	29.2969	65.9736	29.2969	66.0133	29.2969	65.8832	29.2969	65.2839	29.2969	65.7114	29.2969	63.8879	29.2969	65.4542	29.2969	61.9359	29.2969	65.1038	29.2969	59.6837	29.2969	64.6468	29.2969	57.8201	29.2969	64.0643	29.2969	57.4036	29.2969	63.33	29.2969	58.4252	29.2969	62.4104	29.2969	59.8995	29.2969	61.2702
30.7617	60.0036	30.7617	61.1122	30.7617	59.2632	30.7617	62.1502	30.7617	59.6295	30.7617	62.9936	30.7617	61.2359	30.7617	63.6375	30.7617	63.3438	30.7617	64.1061	30.7617	65.3264	30.7617	64.4253	30.7617	66.9133	30.7617	64.6161	30.7617	67.9908	30.7617	64.6935	30.7617	68.4986	30.7617	64.6668	30.7617	68.4152	30.7617	64.5403	30.7617	67.7665	30.7617	64.3137	30.7617	66.6209	30.7617	63.9823	30.7617	65.0709	30.7617	63.5376	30.7617	63.2288	30.7617	62.9674	30.7617	61.2705	30.7617	62.2584	30.7617	59.5385	30.7617	61.4027	30.7617	58.5569	30.7617	60.4175	30.7617	58.6152	30.7617	59.3974
32.2266	64.7594	32.2266	65.0351	32.2266	64.8362	32.2266	65.4606	32.2266	65.4285	32.2266	65.8985	32.2266	66.5049	32.2266	66.2804	32.2266	67.8438	32.2266	66.5804	32.2266	69.1866	32.2266	66.7927	32.2266	70.3322	32.2266	66.9195	32.2266	71.1409	32.2266	66.9654	32.2266	71.5203	32.2266	66.9353	32.2266	71.4275	32.2266	66.8327	32.2266	70.8789	32.2266	66.6601	32.2266	69.947	32.2266	66.4193	32.2266	68.7429	32.2266	66.1123	32.2266	67.4028	32.2266	65.743	32.2266	66.0889	32.2266	65.3213	32.2266	64.9883	32.2266	64.8694	32.2266	64.2693	32.2266	64.4337	32.2266	63.997	32.2266	64.0995
33.6914	68.8483	33.6914	68.7787	33.6914	69.1561	33.6914	68.8609	33.6914	69.7522	33.6914	69.0141	33.6914	70.6096	33.6914	69.1815	33.6914	71.6246	33.6914	69.3294	33.6914	72.6563	33.6914	69.4404	33.6914	73.5641	33.6914	69.507	33.6914	74.2271	33.6914	69.5269	33.6914	74.5555	33.6914	69.5006	33.6914	74.5046	33.6914	69.4301	33.6914	74.0871	33.6914	69.3182	33.6914	73.3678	33.6914	69.1692	33.6914	72.4447	33.6914	68.9896	33.6914	71.4291	33.6914	68.79	33.6914	70.4342	33.6914	68.5872	33.6914	69.5652	33.6914	68.4083	33.6914	68.9032	33.6914	68.294	33.6914	68.4856	33.6914	68.2992
35.1562	72.1993	35.1562	71.9672	35.1562	72.6026	35.1562	71.865	35.1562	73.1935	35.1562	71.846	35.1562	73.9476	35.1562	71.8701	35.1562	74.7989	35.1562	71.9084	35.1562	75.6529	35.1562	71.9424	35.1562	76.4038	35.1562	71.9613	35.1562	76.9503	35.1562	71.9594	35.1562	77.2118	35.1562	71.9348	35.1562	77.1469	35.1562	71.8875	35.1562	76.767	35.1562	71.8199	35.1562	76.1324	35.1562	71.736	35.1562	75.3329	35.1562	71.6425	35.1562	74.4662	35.1562	71.5497	35.1562	73.6226	35.1562	71.4727	35.1562	72.8765	35.1562	71.4331	35.1562	72.2788	35.1562	71.4597	35.1562	71.8512	35.1562	71.5872
36.6211	75.5444	36.6211	75.2386	36.6211	75.9684	36.6211	75.0316	36.6211	76.5152	36.6211	74.8979	36.6211	77.1665	36.6211	74.8132	36.6211	77.8783	36.6211	74.7578	36.6211	78.584	36.6211	74.7169	36.6211	79.2018	36.6211	74.6809	36.6211	79.6464	36.6211	74.6438	36.6211	79.846	36.6211	74.6028	36.6211	79.763	36.6211	74.5573	36.6211	79.4079	36.6211	74.5086	36.6211	78.837	36.6211	74.4602	36.6211	78.1322	36.6211	74.4181	36.6211	77.3784	36.6211	74.3909	36.6211	76.6479	36.6211	74.3909	36.6211	75.9943	36.6211	74.4342	36.6211	75.4508	36.6211	74.5409	36.6211	75.0312	36.6211	74.7329
38.0859	77.8675	38.0859	77.5295	38.0859	78.2949	38.0859	77.2707	38.0859	78.812	38.0859	77.0759	38.0859	79.4038	38.0859	76.9297	38.0859	80.0366	38.0859	76.8185	38.0859	80.6578	38.0859	76.7318	38.0859	81.1992	38.0859	76.6617	38.0859	81.5862	38.0859	76.6032	38.0859	81.7524	38.0859	76.5536	38.0859	81.6612	38.0859	76.5119	38.0859	81.322	38.0859	76.4791	38.0859	80.7885	38.0859	76.4577	38.0859	80.1386	38.0859	76.4522	38.0859	79.4503	38.0859	76.4694	38.0859	78.7868	38.0859	76.5181	38.0859	78.1913	38.0859	76.61	38.0859	77.6879	38.0859	76.7585	38.0859	77.2848	38.0859	76.9787
39.5508	80.2026	39.5508	79.8446	39.5508	80.6273	39.5508	79.5488	39.5508	81.116	39.5508	79.3074	39.5508	81.6553	39.5508	79.1115	39.5508	82.2182	39.5508	78.9528	39.5508	82.7623	39.5508	78.8245	39.5508	83.2313	39.5508	78.7214	39.5508	83.5621	39.5508	78.6399	39.5508	83.6977	39.5508	78.578	39.5508	83.6061	39.5508	78.5349	39.5508	83.2942	39.5508	78.5111	39.5508	82.8082	39.5508	78.5086	39.5508	82.2163	39.5508	78.5305	39.5508	81.5875	39.5508	78.5815	39.5508	80.977	39.5508	78.6679	39.5508	80.4217	39.5508	78.7976	39.5508	79.9416	39.5508	78.9801	39.5508	79.5436	39.5508	79.2255
41.0156	82.0894	41.0156	81.7285	41.0156	82.5015	41.0156	81.418	41.0156	82.9605	41.0156	81.1541	41.0156	83.4539	41.0156	80.932	41.0156	83.9581	41.0156	80.7469	41.0156	84.4369	41.0156	80.5946	41.0156	84.8418	41.0156	80.4719	41.0156	85.1173	41.0156	80.3764	41.0156	85.2138	41.0156	80.3067	41.0156	85.1048	41.0156	80.2622	41.0156	84.8005	41.0156	80.2433	41.0156	84.3457	41.0156	80.2511	41.0156	83.8031	41.0156	80.2878	41.0156	83.2329	41.0156	80.3565	41.0156	82.6811	41.0156	80.4613	41.0156	82.1766	41.0156	80.6077	41.0156	81.7343	41.0156	80.8017	41.0156	81.3593	41.0156	81.0501
42.4805	83.6431	42.4805	83.2783	42.4805	84.0486	42.4805	82.9555	42.4805	84.4895	42.4805	82.6735	42.4805	84.9542	42.4805	82.4304	42.4805	85.4218	42.4805	82.2236	42.4805	85.8606	42.4805	82.0511	42.4805	86.2276	42.4805	81.911	42.4805	86.4732	42.4805	81.8022	42.4805	86.552	42.4805	81.7236	42.4805	86.4391	42.4805	81.6749	42.4805	86.143	42.4805	81.6564	42.4805	85.7048	42.4805	81.6686	42.4805	85.183	42.4805	81.7129	42.4805	84.6349	42.4805	81.7914	42.4805	84.1041	42.4805	81.9069	42.4805	83.6179	42.4805	82.063	42.4805	83.1895	42.4805	82.2643	42.4805	82.8227	42.4805	82.5158
43.9453	84.8952	43.9453	84.535	43.9453	85.2856	43.9453	84.2079	43.9453	85.7005	43.9453	83.9149	43.9453	86.1289	43.9453	83.6561	43.9453	86.5525	43.9453	83.4311	43.9453	86.9438	43.9453	83.2395	43.9453	87.2651	43.9453	83.081	43.9453	87.4718	43.9453	82.9552	43.9453	87.5228	43.9453	82.8622	43.9453	87.396	43.9453	82.8019	43.9453	87.1004	43.9453	82.7747	43.9453	86.6754	43.9453	82.7811	43.9453	86.1753	43.9453	82.8219	43.9453	85.6522	43.9453	82.8987	43.9453	85.1457	43.9453	83.0133	43.9453	84.6803	43.9453	83.1684	43.9453	84.2683	43.9453	83.3674	43.9453	83.9135	43.9453	83.6144
45.4102	85.7615	45.4102	85.4084	45.4102	86.1393	45.4102	85.0837	45.4102	86.5358	45.4102	84.7893	45.4102	86.9406	45.4102	84.5264	45.4102	87.3368	45.4102	84.2957	45.4102	87.6995	45.4102	84.098	45.4102	87.9946	45.4102	83.9337	45.4102	88.1823	45.4102	83.8031	45.4102	88.2258	45.4102	83.7069	45.4102	88.1059	45.4102	83.6453	45.4102	87.8313	45.4102	83.619	45.4102	87.4372	45.4102	83.6283	45.4102	86.9721	45.4102	83.6743	45.4102	86.4822	45.4102	83.7578	45.4102	86.0027	45.4102	83.8803	45.4102	85.5563	45.4102	84.0436	45.4102	85.155	45.4102	84.2502	45.4102	84.8036	45.4102	84.5027
46.875	86.495	46.875	86.1483	46.875	86.8619	46.875	85.8262	46.875	87.2426	46.875	85.5318	46.875	87.627	46.875	85.2672	46.875	87.9995	46.875	85.0342	46.875	88.3375	46.875	84.8344	46.875	88.6102	46.875	84.669	46.875	88.7819	46.875	84.5391	46.875	88.8199	46.875	84.4455	46.875	88.7076	46.875	84.3887	46.875	88.4538	46.875	84.3694	46.875	88.0913	46.875	84.3878	46.875	87.6636	46.875	84.4444	46.875	87.2111	46.875	84.5394	46.875	86.7646	46.875	84.6734	46.875	86.3438	46.875	84.8471	46.875	85.9596	46.875	85.0615	46.875	85.6171	46.875	85.3178
48.3398	86.9882	48.3398	86.655	48.3398	87.3367	48.3398	86.3425	48.3398	87.6935	48.3398	86.0544	48.3398	88.0487	48.3398	85.7941	48.3398	88.3876	48.3398	85.564	48.3398	88.69	48.3398	85.3662	48.3398	88.9288	48.3398	85.2026	48.3398	89.0724	48.3398	85.0744	48.3398	89.0924	48.3398	84.9827	48.3398	88.9755	48.3398	84.9281	48.3398	88.7327	48.3398	84.9109	48.3398	88.3955	48.3398	84.9312	48.3398	88.0029	48.3398	84.989	48.3398	87.5898	48.3398	85.0841	48.3398	87.1819	48.3398	85.2165	48.3398	86.7956	48.3398	85.3861	48.3398	86.4402	48.3398	85.5931	48.3398	86.1203	48.3398	85.8378
51.2695	87.5149	51.2695	87.1999	51.2695	87.8407	51.2695	86.902	51.2695	88.1693	51.2695	86.6267	51.2695	88.4906	51.2695	86.3786	51.2695	88.7907	51.2695	86.1615	51.2695	89.0514	51.2695	85.9788	51.2695	89.2495	51.2695	85.833	51.2695	89.36	51.2695	85.7256	51.2695	89.3632	51.2695	85.6577	51.2695	89.2537	51.2695	85.6295	51.2695	89.0457	51.2695	85.6403	51.2695	88.7684	51.2695	85.6891	51.2695	88.4537	51.2695	85.774	51.2695	88.1265	51.2695	85.8931	51.2695	87.8027	51.2695	86.0441	51.2695	87.4909	51.2695	86.2245	51.2695	87.1956	51.2695	86.432	51.2695	86.9195	51.2695	86.6643
52.7344	87.8764	52.7344	87.5549	52.7344	88.2024	52.7344	87.2453	52.7344	88.5245	52.7344	86.9539	52.7344	88.8319	52.7344	86.6862	52.7344	89.1112	52.7344	86.4472	52.7344	89.3454	52.7344	86.241	52.7344	89.5135	52.7344	86.0711	52.7344	89.5932	52.7344	85.9401	52.7344	89.566	52.7344	85.8499	52.7344	89.4273	52.7344	85.8013	52.7344	89.1917	52.7344	85.7942	52.7344	88.89	52.7344	85.8278	52.7344	88.5559	52.7344	85.9003	52.7344	88.2159	52.7344	86.0095	52.7344	87.8857	52.7344	86.1526	52.7344	87.5726	52.7344	86.3267	52.7344	87.2794	52.7344	86.5288	52.7344	87.007	52.7344	86.7563
54.1992	88.1495	54.1992	87.8306	54.1992	88.4718	54.1992	87.5225	54.1992	88.7893	54.1992	87.2314	54.1992	89.0917	54.1992	86.9629	54.1992	89.3665	54.1992	86.7219	54.1992	89.5978	54.1992	86.5126	54.1992	89.7662	54.1992	86.3382	54.1992	89.8501	54.1992	86.2016	54.1992	89.8313	54.1992	86.1044	54.1992	89.7031	54.1992	86.0477	54.1992	89.4772	54.1992	86.0315	54.1992	89.1796	54.1992	86.0554	54.1992	88.8412	54.1992	86.1181	54.1992	88.4883	54.1992	86.218	54.1992	88.1394	54.1992	86.3531	54.1992	87.8061	54.1992	86.5215	54.1992	87.4948	54.1992	86.7213	54.1992	87.2092	54.1992	86.9509
55.6641	88.2542	55.6641	87.9369	55.6641	88.5724	55.6641	87.6282	55.6641	88.8828	55.6641	87.3348	55.6641	89.1751	55.6641	87.063	55.6641	89.4369	55.6641	86.8182	55.6641	89.6529	55.6641	86.6053	55.6641	89.8048	55.6641	86.428	55.6641	89.8734	55.6641	86.2896	55.6641	89.8433	55.6641	86.1922	55.6641	89.7113	55.6641	86.1369	55.6641	89.4912	55.6641	86.124	55.6641	89.2088	55.6641	86.1528	55.6641	88.8922	55.6641	86.2219	55.6641	88.5636	55.6641	86.3292	55.6641	88.2374	55.6641	86.4721	55.6641	87.9223	55.6641	86.6479	55.6641	87.6233	55.6641	86.8535	55.6641	87.3438	55.6641	87.0864
58.5938	88.4261	58.5938	88.1199	58.5938	88.7277	58.5938	87.8174	58.5938	89.0155	58.5938	87.526	58.5938	89.2795	58.5938	87.2527	58.5938	89.5077	58.5938	87.0037	58.5938	89.6868	58.5938	86.7843	58.5938	89.8015	58.5938	86.5993	58.5938	89.8365	58.5938	86.4523	58.5938	89.7811	58.5938	86.3461	58.5938	89.6356	58.5938	86.2821	58.5938	89.415	58.5938	86.261	58.5938	89.1437	58.5938	86.2822	58.5938	88.8466	58.5938	86.3443	58.5938	88.5421	58.5938	86.4448	58.5938	88.2413	58.5938	86.5809	58.5938	87.9503	58.5938	86.7491	58.5938	87.6726	58.5938	86.9459	58.5938	87.4107	58.5938	87.1675
60.0586	88.535	60.0586	88.2342	60.0586	88.8293	60.0586	87.9353	60.0586	89.1078	60.0586	87.6462	60.0586	89.3603	60.0586	87.374	60.0586	89.5754	60.0586	87.1252	60.0586	89.7401	60.0586	86.9055	60.0586	89.8402	60.0586	86.7197	60.0586	89.8622	60.0586	86.5716	60.0586	89.7974	60.0586	86.464	60.0586	89.6479	60.0586	86.3988	60.0586	89.429	60.0586	86.3764	60.0586	89.1646	60.0586	86.3964	60.0586	88.8783	60.0586	86.4571	60.0586	88.5867	60.0586	86.5561	60.0586	88.2994	60.0586	86.6902	60.0586	88.021	60.0586	86.8557	60.0586	87.7542	60.0586	87.0486	60.0586	87.5014	60.0586	87.2651
62.9883	88.5573	62.9883	88.262	62.9883	88.8414	62.9883	87.9646	62.9883	89.1044	62.9883	87.6734	62.9883	89.3358	62.9883	87.3963	62.9883	89.5244	62.9883	87.1403	62.9883	89.6581	62.9883	86.9114	62.9883	89.7252	62.9883	86.715	62.9883	89.7156	62.9883	86.5553	62.9883	89.6243	62.9883	86.4356	62.9883	89.4552	62.9883	86.3577	62.9883	89.2234	62.9883	86.3226	62.9883	88.9514	62.9883	86.3299	62.9883	88.6619	62.9883	86.378	62.9883	88.3722	62.9883	86.4643	62.9883	88.0919	62.9883	86.5854	62.9883	87.8253	62.9883	86.7374	62.9883	87.5735	62.9883	86.9159	62.9883	87.337	62.9883	87.117
64.4531	88.5072	64.4531	88.2207	64.4531	88.7816	64.4531	87.931	64.4531	89.0339	64.4531	87.6468	64.4531	89.2539	64.4531	87.3757	64.4531	89.4305	64.4531	87.1246	64.4531	89.5525	64.4531	86.8998	64.4531	89.6092	64.4531	86.7062	64.4531	89.592	64.4531	86.5482	64.4531	89.4966	64.4531	86.4286	64.4531	89.3271	64.4531	86.3494	64.4531	89.0971	64.4531	86.3112	64.4531	88.8278	64.4531	86.3138	64.4531	88.5411	64.4531	86.3554	64.4531	88.2545	64.4531	86.4338	64.4531	87.9789	64.4531	86.5455	64.4531	87.7191	64.4531	86.6868	64.4531	87.4765	64.4531	86.8538	64.4531	87.2509	64.4531	87.0428
67.3828	88.7285	67.3828	88.4591	67.3828	88.9874	67.3828	88.1881	67.3828	89.227	67.3828	87.9236	67.3828	89.4379	67.3828	87.6733	67.3828	89.6108	67.3828	87.4439	67.3828	89.7367	67.3828	87.2415	67.3828	89.8078	67.3828	87.0711	67.3828	89.8189	67.3828	86.9368	67.3828	89.7687	67.3828	86.8414	67.3828	89.6612	67.3828	86.7865	67.3828	89.5045	67.3828	86.7726	67.3828	89.3091	67.3828	86.7989	67.3828	89.0856	67.3828	86.8635	67.3828	88.8442	67.3828	86.9638	67.3828	88.5945	67.3828	87.096	67.3828	88.3443	67.3828	87.2562	67.3828	88.0999	67.3828	87.4404	67.3828	87.8656	67.3828	87.6447
68.8477	88.6858	68.8477	88.4185	68.8477	88.9416	68.8477	88.1486	68.8477	89.1765	68.8477	87.8847	68.8477	89.3811	68.8477	87.6346	68.8477	89.5465	68.8477	87.4054	68.8477	89.6644	68.8477	87.2034	68.8477	89.7288	68.8477	87.0338	68.8477	89.7362	68.8477	86.9006	68.8477	89.6873	68.8477	86.8068	68.8477	89.5872	68.8477	86.7542	68.8477	89.4438	68.8477	86.743	68.8477	89.2654	68.8477	86.7727	68.8477	89.0595	68.8477	86.8413	68.8477	88.8339	68.8477	86.9461	68.8477	88.596	68.8477	87.0836	68.8477	88.3528	68.8477	87.2495	68.8477	88.1105	68.8477	87.4396	68.8477	87.8745	68.8477	87.6493
71.7773	88.7051	71.7773	88.4309	71.7773	88.963	71.7773	88.1505	71.7773	89.1945	71.7773	87.8734	71.7773	89.3895	71.7773	87.6087	71.7773	89.5386	71.7773	87.3643	71.7773	89.6339	71.7773	87.1473	71.7773	89.6699	71.7773	86.9637	71.7773	89.6456	71.7773	86.8179	71.7773	89.565	71.7773	86.7131	71.7773	89.4375	71.7773	86.6511	71.7773	89.2746	71.7773	86.6322	71.7773	89.0861	71.7773	86.6554	71.7773	88.8788	71.7773	86.7186	71.7773	88.6576	71.7773	86.8188	71.7773	88.427	71.7773	86.9521	71.7773	88.1917	71.7773	87.1142	71.7773	87.9565	71.7773	87.3004	71.7773	87.7263	71.7773	87.506
74.707	88.6291	74.707	88.3582	74.707	88.8812	74.707	88.079	74.707	89.1042	74.707	87.8015	74.707	89.2879	74.707	87.535	74.707	89.423	74.707	87.2881	74.707	89.5022	74.707	87.0681	74.707	89.5215	74.707	86.8812	74.707	89.4819	74.707	86.7323	74.707	89.3902	74.707	86.6247	74.707	89.258	74.707	86.5603	74.707	89.0973	74.707	86.5394	74.707	88.9162	74.707	86.5609	74.707	88.7189	74.707	86.6228	74.707	88.5085	74.707	86.7216	74.707	88.2883	74.707	86.8533	74.707	88.0627	74.707	87.0134	74.707	87.836	74.707	87.1967	74.707	87.6129	74.707	87.3982
77.6367	88.4725	77.6367	88.2038	77.6367	88.72	77.6367	87.9248	77.6367	88.9357	77.6367	87.646	77.6367	89.1094	77.6367	87.3774	77.6367	89.2322	77.6367	87.1281	77.6367	89.2982	77.6367	86.906	77.6367	89.3052	77.6367	86.7178	77.6367	89.257	77.6367	86.5686	77.6367	89.1632	77.6367	86.462	77.6367	89.0373	77.6367	86.4	77.6367	88.8907	77.6367	86.3829	77.6367	88.7289	77.6367	86.4094	77.6367	88.5524	77.6367	86.4771	77.6367	88.3606	77.6367	86.5823	77.6367	88.1549	77.6367	86.7205	77.6367	87.9389	77.6367	86.8866	77.6367	87.7175	77.6367	87.0749	77.6367	87.496	77.6367	87.2799
79.1016	88.4224	79.1016	88.1544	79.1016	88.6682	79.1016	87.8751	79.1016	88.881	79.1016	87.5955	79.1016	89.0505	79.1016	87.3256	79.1016	89.1682	79.1016	87.0747	79.1016	89.2281	79.1016	86.851	79.1016	89.2287	79.1016	86.6614	79.1016	89.1745	79.1016	86.5111	79.1016	89.0764	79.1016	86.4037	79.1016	88.9484	79.1016	86.3412	79.1016	88.8023	79.1016	86.3238	79.1016	88.6431	79.1016	86.3504	79.1016	88.4705	79.1016	86.4182	79.1016	88.2835	79.1016	86.5236	79.1016	88.0827	79.1016	86.6618	79.1016	87.8711	79.1016	86.8277	79.1016	87.6531	79.1016	87.0156	79.1016	87.4341	79.1016	87.2197
82.0312	88.3226	82.0312	88.0565	82.0312	88.5641	82.0312	87.7772	82.0312	88.7697	82.0312	87.496	82.0312	88.9292	82.0312	87.2235	82.0312	89.0339	82.0312	86.9693	82.0312	89.0782	82.0312	86.7422	82.0312	89.0615	82.0312	86.5491	82.0312	88.99	82.0312	86.3955	82.0312	88.8768	82.0312	86.285	82.0312	88.7378	82.0312	86.2195	82.0312	88.5851	82.0312	86.199	82.0312	88.4231	82.0312	86.222	82.0312	88.251	82.0312	86.2856	82.0312	88.0673	82.0312	86.3857	82.0312	87.8727	82.0312	86.5176	82.0312	87.6697	82.0312	86.676	82.0312	87.4618	82.0312	86.8552	82.0312	87.2535	82.0312	87.0495
84.9609	88.1616	84.9609	87.9009	84.9609	88.394	84.9609	87.6237	84.9609	88.5867	84.9609	87.342	84.9609	88.7295	84.9609	87.0673	84.9609	88.8142	84.9609	86.81	84.9609	88.8364	84.9609	86.5798	84.9609	88.7975	84.9609	86.3846	84.9609	88.7072	84.9609	86.2303	84.9609	88.5826	84.9609	86.1211	84.9609	88.4431	84.9609	86.0587	84.9609	88.3002	84.9609	86.0428	84.9609	88.1541	84.9609	86.0711	84.9609	87.9991	84.9609	86.1398	84.9609	87.8319	84.9609	86.2438	84.9609	87.6535	84.9609	86.3771	84.9609	87.4669	84.9609	86.5336	84.9609	87.2756	84.9609	86.7071	84.9609	87.0827	84.9609	86.8918
87.8906	88.234	87.8906	87.9744	87.8906	88.4608	87.8906	87.6946	87.8906	88.6432	87.8906	87.4071	87.8906	88.7714	87.8906	87.1245	87.8906	88.8383	87.8906	86.8585	87.8906	88.842	87.8906	86.6202	87.8906	88.7883	87.8906	86.4189	87.8906	88.6923	87.8906	86.2624	87.8906	88.577	87.8906	86.1559	87.8906	88.4646	87.8906	86.1024	87.8906	88.3652	87.8906	86.102	87.8906	88.2727	87.8906	86.1525	87.8906	88.1726	87.8906	86.2489	87.8906	88.0532	87.8906	86.3848	87.8906	87.9102	87.8906	86.5521	87.8906	87.7447	87.8906	86.7421	87.8906	87.5606	87.8906	86.946	87.8906	87.3623	87.8906	87.1553
90.8203	88.2772	90.8203	88.0094	90.8203	88.5083	90.8203	87.7178	90.8203	88.6904	90.8203	87.4155	90.8203	88.813	90.8203	87.1155	90.8203	88.8688	90.8203	86.8302	90.8203	88.8559	90.8203	86.5709	90.8203	88.7809	90.8203	86.3477	90.8203	88.6611	90.8203	86.1693	90.8203	88.5227	90.8203	86.0421	90.8203	88.3919	90.8203	85.9701	90.8203	88.2824	90.8203	85.955	90.8203	88.1893	90.8203	85.9954	90.8203	88.0959	90.8203	86.0875	90.8203	87.9853	90.8203	86.2251	90.8203	87.8475	90.8203	86.4	90.8203	87.6805	90.8203	86.6027	90.8203	87.4875	90.8203	86.8228	90.8203	87.2747	90.8203	87.0501
95.2148	88.0382	95.2148	87.7633	95.2148	88.2742	95.2148	87.4629	95.2148	88.4587	95.2148	87.1507	95.2148	88.5806	95.2148	86.8398	95.2148	88.6321	95.2148	86.5426	95.2148	88.6113	95.2148	86.2707	95.2148	88.5251	95.2148	86.0341	95.2148	88.391	95.2148	85.8414	95.2148	88.236	95.2148	85.6991	95.2148	88.087	95.2148	85.6116	95.2148	87.958	95.2148	85.5809	95.2148	87.8458	95.2148	85.6065	95.2148	87.735	95.2148	85.6853	95.2148	87.6099	95.2148	85.8121	95.2148	87.4602	95.2148	85.9794	95.2148	87.2828	95.2148	86.1782	95.2148	87.0805	95.2148	86.3983	95.2148	86.8597	95.2148	86.6289
98.1445	87.9127	98.1445	87.638	98.1445	88.1454	98.1445	87.3352	98.1445	88.3225	98.1445	87.0186	98.1445	88.4326	98.1445	86.7022	98.1445	88.4682	98.1445	86.3989	98.1445	88.4278	98.1445	86.1206	98.1445	88.3199	98.1445	85.8777	98.1445	88.1647	98.1445	85.6787	98.1445	87.9917	98.1445	85.5303	98.1445	87.8298	98.1445	85.4365	98.1445	87.6936	98.1445	85.3991	98.1445	87.5782	98.1445	85.4174	98.1445	87.4671	98.1445	85.4883	98.1445	87.3433	98.1445	85.6065	98.1445	87.1963	98.1445	85.7648	98.1445	87.0229	98.1445	85.9544	98.1445	86.8258	98.1445	86.1656	98.1445	86.6113	98.1445	86.388
101.074	87.7928	101.074	87.5079	101.074	88.035	101.074	87.1947	101.074	88.2206	101.074	86.8678	101.074	88.3379	101.074	86.5415	101.074	88.3787	101.074	86.229	101.074	88.3414	101.074	85.9425	101.074	88.2338	101.074	85.6926	101.074	88.076	101.074	85.488	101.074	87.8975	101.074	85.3353	101.074	87.728	101.074	85.2388	101.074	87.583	101.074	85.2003	101.074	87.4588	101.074	85.219	101.074	87.3393	101.074	85.2917	101.074	87.2078	101.074	85.413	101.074	87.0537	101.074	85.5755	101.074	86.8734	101.074	85.7705	101.074	86.6692	101.074	85.9878	101.074	86.4475	101.074	86.217
105.469	87.5912	105.469	87.3053	105.469	87.8328	105.469	86.9897	105.469	88.0164	105.469	86.6589	105.469	88.1301	105.469	86.3272	105.469	88.166	105.469	86.0082	105.469	88.1227	105.469	85.7141	105.469	88.0086	105.469	85.4557	105.469	87.8443	105.469	85.2422	105.469	87.6597	105.469	85.0804	105.469	87.4839	105.469	84.975	105.469	87.3311	105.469	84.928	105.469	87.196	105.469	84.9388	105.469	87.0624	105.469	85.0043	105.469	86.9159	105.469	85.1189	105.469	86.749	105.469	85.2754	105.469	86.5603	105.469	85.4648	105.469	86.3524	105.469	85.6773	105.469	86.1307	105.469	85.9026
108.398	87.4415	108.398	87.1602	108.398	87.6759	108.398	86.8466	108.398	87.8501	108.398	86.5155	108.398	87.9531	108.398	86.1814	108.398	87.9781	108.398	85.8581	108.398	87.9258	108.398	85.5586	108.398	87.8071	108.398	85.2941	108.398	87.6448	108.398	85.0745	108.398	87.4703	108.398	84.9072	108.398	87.3118	108.398	84.7977	108.398	87.1803	108.398	84.7486	108.398	87.0663	108.398	84.7599	108.398	86.9499	108.398	84.8287	108.398	86.8143	108.398	84.9498	108.398	86.6515	108.398	85.1154	108.398	86.4612	108.398	85.3159	108.398	86.2473	108.398	85.5404	108.398	86.0167	108.398	85.7777
112.793	87.2259	112.793	86.9579	112.793	87.4396	112.793	86.6521	112.793	87.5834	112.793	86.3251	112.793	87.6449	112.793	85.993	112.793	87.6176	112.793	85.6709	112.793	87.5046	112.793	85.3723	112.793	87.3239	112.793	85.1088	112.793	87.1102	112.793	84.8902	112.793	86.909	112.793	84.7237	112.793	86.7584	112.793	84.6145	112.793	86.6689	112.793	84.5648	112.793	86.62	112.793	84.5748	112.793	86.5763	112.793	84.6418	112.793	86.5068	112.793	84.7611	112.793	86.3951	112.793	84.9254	112.793	86.2387	112.793	85.1254	112.793	86.0441	112.793	85.35	112.793	85.8225	112.793	85.5867
117.188	87.0298	117.188	86.7371	117.188	87.2647	117.188	86.4045	117.188	87.4246	117.188	86.0497	117.188	87.4948	117.188	85.6898	117.188	87.4658	117.188	85.3404	117.188	87.3373	117.188	85.0158	117.188	87.1232	117.188	84.7278	117.188	86.856	117.188	84.4861	117.188	86.5829	117.188	84.2976	117.188	86.3504	117.188	84.1665	117.188	86.1829	117.188	84.0942	117.188	86.0732	117.188	84.0799	117.188	85.9918	117.188	84.1212	117.188	85.9046	117.188	84.2141	117.188	85.7865	117.188	84.3532	117.188	85.6267	117.188	84.5317	117.188	85.4284	117.188	84.7408	117.188	85.204	117.188	84.9695
120.117	87.2995	120.117	87.0101	120.117	87.5286	120.117	86.6779	120.117	87.6811	120.117	86.3207	120.117	87.7438	120.117	85.956	120.117	87.7087	120.117	85.6003	120.117	87.5769	120.117	85.2692	120.117	87.363	120.117	84.9762	120.117	87.0973	120.117	84.7326	120.117	86.8214	120.117	84.5466	120.117	86.5735	120.117	84.4229	120.117	86.3709	120.117	84.3621	120.117	86.2079	120.117	84.361	120.117	86.0687	120.117	84.4135	120.117	85.9388	120.117	84.5111	120.117	85.8076	120.117	84.6443	120.117	85.6664	120.117	84.8033	120.117	85.5105	120.117	84.9783	120.117	85.3401	120.117	85.1602
124.512	87.3812	124.512	87.0796	124.512	87.6177	124.512	86.7316	124.512	87.7712	124.512	86.3562	124.512	87.8276	124.512	85.9718	124.512	87.7788	124.512	85.5958	124.512	87.6284	124.512	85.2444	124.512	87.3978	124.512	84.9321	124.512	87.1301	124.512	84.6719	124.512	86.8842	124.512	84.4747	124.512	86.7116	124.512	84.3486	124.512	86.6266	124.512	84.2987	124.512	86.5996	124.512	84.3259	124.512	86.5827	124.512	84.4268	124.512	86.5379	124.512	84.5931	124.512	86.447	124.512	84.8126	124.512	86.3053	124.512	85.0694	124.512	86.1157	124.512	85.3457	124.512	85.8847	124.512	85.6232
128.906	87.3187	128.906	86.9764	128.906	87.5943	128.906	86.588	128.906	87.783	128.906	86.1735	128.906	87.8671	128.906	85.7518	128.906	87.8338	128.906	85.3404	128.906	87.6809	128.906	84.9551	128.906	87.4229	128.906	84.6098	128.906	87.099	128.906	84.3171	128.906	86.7726	128.906	84.0874	128.906	86.5122	128.906	83.9291	128.906	86.3554	128.906	83.8482	128.906	86.2865	128.906	83.8474	128.906	86.2534	128.906	83.9258	128.906	86.2037	128.906	84.0782	128.906	86.105	128.906	84.2948	128.906	85.9458	128.906	84.5611	128.906	85.7283	128.906	84.8586	128.906	85.463	128.906	85.1664
133.301	87.0565	133.301	86.6968	133.301	87.3575	133.301	86.2982	133.301	87.5801	133.301	85.8795	133.301	87.7063	133.301	85.4578	133.301	87.7226	133.301	85.0482	133.301	87.6232	133.301	84.6636	133.301	87.4161	133.301	84.3151	133.301	87.1278	133.301	84.0118	133.301	86.8037	133.301	83.7613	133.301	86.4971	133.301	83.5701	133.301	86.2455	133.301	83.4439	133.301	86.0527	133.301	83.387	133.301	85.8921	133.301	83.4023	133.301	85.7284	133.301	83.4901	133.301	85.5353	133.301	83.6472	133.301	85.3023	133.301	83.8653	133.301	85.0315	133.301	84.1313	133.301	84.7343	133.301	84.4276
139.16	86.5216	139.16	86.1496	139.16	86.8336	139.16	85.7388	139.16	87.0651	139.16	85.3101	139.16	87.1988	139.16	84.8829	139.16	87.2231	139.16	84.4743	139.16	87.1368	139.16	84.0987	139.16	86.9537	139.16	83.7675	139.16	86.7062	139.16	83.4885	139.16	86.4409	139.16	83.2666	139.16	86.2025	139.16	83.104	139.16	86.0103	139.16	83.0013	139.16	85.851	139.16	82.9586	139.16	85.6917	139.16	82.9765	139.16	85.5014	139.16	83.0562	139.16	85.2632	139.16	83.1988	139.16	84.9757	139.16	83.4036	139.16	84.6509	139.16	83.6653	139.16	84.3089	139.16	83.973
143.555	86.4352	143.555	86.0374	143.555	86.7632	143.555	85.5941	143.555	86.9982	143.555	85.1303	143.555	87.1212	143.555	84.6694	143.555	87.1206	143.555	84.2333	143.555	86.9967	143.555	83.8407	143.555	86.7676	143.555	83.5065	143.555	86.4734	143.555	83.2412	143.555	86.1707	143.555	83.0495	143.555	85.9129	143.555	82.9313	143.555	85.7221	143.555	82.882	143.555	85.5807	143.555	82.8942	143.555	85.4487	143.555	82.9601	143.555	85.2891	143.555	83.0735	143.555	85.0821	143.555	83.2301	143.555	84.8269	143.555	83.428	143.555	84.5369	143.555	83.6652	143.555	84.2332	143.555	83.937
147.949	86.5704	147.949	86.1299	147.949	86.935	147.949	85.6378	147.949	87.2003	147.949	85.1185	147.949	87.3464	147.949	84.5955	147.949	87.3597	147.949	84.0913	147.949	87.2379	147.949	83.6275	147.949	86.9969	147.949	83.2244	147.949	86.6771	147.949	82.9007	147.949	86.3402	147.949	82.6715	147.949	86.0481	147.949	82.5471	147.949	85.8317	147.949	82.5297	147.949	85.6806	147.949	82.6134	147.949	85.5611	147.949	82.7842	147.949	85.439	147.949	83.0232	147.949	85.289	147.949	83.3098	147.949	85.0967	147.949	83.6246	147.949	84.8587	147.949	83.9509	147.949	84.5809	147.949	84.2741
153.809	86.6724	153.809	86.1947	153.809	87.0872	153.809	85.6805	153.809	87.4116	153.809	85.1532	153.809	87.6192	153.809	84.6328	153.809	87.6882	153.809	84.1347	153.809	87.6065	153.809	83.6704	153.809	87.3797	153.809	83.2482	153.809	87.0395	153.809	82.8741	153.809	86.6459	153.809	82.5537	153.809	86.2715	153.809	82.2941	153.809	85.9675	153.809	82.1055	153.809	85.7373	153.809	82.002	153.809	85.5455	153.809	81.9997	153.809	85.3475	153.809	82.1122	153.809	85.1092	153.809	82.3436	153.809	84.8106	153.809	82.6827	153.809	84.4454	153.809	83.1018	153.809	84.0216	153.809	83.562
159.668	86.2912	159.668	85.8512	159.668	86.6874	159.668	85.3909	159.668	87.0151	159.668	84.9308	159.668	87.2505	159.668	84.4885	159.668	87.3734	159.668	84.0779	159.668	87.3724	159.668	83.7096	159.668	87.2498	159.668	83.3904	159.668	87.026	159.668	83.1234	159.668	86.7374	159.668	82.9076	159.668	86.4238	159.668	82.7388	159.668	86.1101	159.668	82.6114	159.668	85.7966	159.668	82.5205	159.668	85.4687	159.668	82.4651	159.668	85.1119	159.668	82.4509	159.668	84.7211	159.668	82.4908	159.668	84.3019	159.668	82.6025	159.668	83.8712	159.668	82.8011	159.668	83.4563	159.668	83.0903
165.527	86.4461	165.527	86.0552	165.527	86.7648	165.527	85.6159	165.527	86.9881	165.527	85.1517	165.527	87.0961	165.527	84.6853	165.527	87.0765	165.527	84.2385	165.527	86.9301	165.527	83.832	165.527	86.6779	165.527	83.4835	165.527	86.3624	165.527	83.206	165.527	86.0392	165.527	83.0053	165.527	85.7532	165.527	82.8779	165.527	85.5145	165.527	82.8118	165.527	85.2941	165.527	82.789	165.527	85.0475	165.527	82.7906	165.527	84.7437	165.527	82.8026	165.527	84.3821	165.527	82.8211	165.527	83.9911	165.527	82.856	165.527	83.6159	165.527	82.9301	165.527	83.3005	165.527	83.0715
171.387	86.6936	171.387	86.3157	171.387	86.9981	171.387	85.8906	171.387	87.2013	171.387	85.4412	171.387	87.2764	171.387	84.9868	171.387	87.2028	171.387	84.5439	171.387	86.9731	171.387	84.1271	171.387	86.6026	171.387	83.7505	171.387	86.1367	171.387	83.4281	171.387	85.6467	171.387	83.1735	171.387	85.2044	171.387	82.9985	171.387	84.8483	171.387	82.9101	171.387	84.5776	171.387	82.9067	171.387	84.3733	171.387	82.9765	171.387	84.215	171.387	83.0985	171.387	84.0854	171.387	83.2475	171.387	83.9725	171.387	83.3999	171.387	83.8688	171.387	83.5397	171.387	83.7679	171.387	83.6611
177.246	86.5667	177.246	86.1962	177.246	86.8658	177.246	85.7795	177.246	87.0685	177.246	85.3397	177.246	87.1516	177.246	84.8979	177.246	87.0982	177.246	84.4725	177.246	86.9033	177.246	84.0793	177.246	86.5808	177.246	83.7314	177.246	86.1696	177.246	83.4394	177.246	85.7324	177.246	83.2104	177.246	85.3366	177.246	83.0487	177.246	85.0227	177.246	82.9546	177.246	84.7881	177.246	82.925	177.246	84.6047	177.246	82.9536	177.246	84.4454	177.246	83.0315	177.246	84.2933	177.246	83.1486	177.246	84.1386	177.246	83.2943	177.246	83.9763	177.246	83.4582	177.246	83.8062	177.246	83.6315
183.105	86.8029	183.105	86.4394	183.105	87.0827	183.105	86.0205	183.105	87.2515	183.105	85.5731	183.105	87.2863	183.105	85.1209	183.105	87.1734	183.105	84.6845	183.105	86.9147	183.105	84.2804	183.105	86.5354	183.105	83.9223	183.105	86.0873	183.105	83.6208	183.105	85.6403	183.105	83.3844	183.105	85.2569	183.105	83.2194	183.105	84.9661	183.105	83.1295	183.105	84.7606	183.105	83.1141	183.105	84.6162	183.105	83.1678	183.105	84.5089	183.105	83.2792	183.105	84.4187	183.105	83.4318	183.105	84.3287	183.105	83.6066	183.105	84.2257	183.105	83.7855	183.105	84.1015	183.105	83.9536
188.965	86.9087	188.965	86.5245	188.965	87.2071	188.965	86.0838	188.965	87.3887	188.965	85.6127	188.965	87.4241	188.965	85.134	188.965	87.2905	188.965	84.6683	188.965	86.9814	188.965	84.2332	188.965	86.5187	188.965	83.8442	188.965	85.9636	188.965	83.5135	188.965	85.4129	188.965	83.25	188.965	84.9646	188.965	83.0589	188.965	84.6684	188.965	82.9428	188.965	84.5108	188.965	82.902	188.965	84.4445	188.965	82.9346	188.965	84.4201	188.965	83.0361	188.965	84.3961	188.965	83.1972	188.965	84.34	188.965	83.4033	188.965	84.2329	188.965	83.6339	188.965	84.0709	188.965	83.8646
196.289	86.7301	196.289	86.3123	196.289	87.0728	196.289	85.8469	196.289	87.3103	196.289	85.359	196.289	87.4122	196.289	84.8711	196.289	87.3522	196.289	84.4035	196.289	87.1152	196.289	83.9742	196.289	86.7086	196.289	83.5976	196.289	86.1757	196.289	83.2835	196.289	85.6011	196.289	83.0364	196.289	85.0927	196.289	82.8561	196.289	84.7312	196.289	82.7395	196.289	84.5251	196.289	82.6833	196.289	84.4214	196.289	82.6858	196.289	84.3527	196.289	82.7473	196.289	84.27	196.289	82.868	196.289	84.1462	196.289	83.0441	196.289	83.972	196.289	83.2643	196.289	83.7536	196.289	83.5093
203.613	86.2843	203.613	85.9074	203.613	86.5723	203.613	85.4658	203.613	86.749	203.613	84.9847	203.613	86.7949	203.613	84.4898	203.613	86.6962	203.613	84.0066	203.613	86.4482	203.613	83.5598	203.613	86.0614	203.613	83.1708	203.613	85.5674	203.613	82.8546	203.613	85.0237	203.613	82.6176	203.613	84.5092	203.613	82.4566	203.613	84.1032	203.613	82.3612	203.613	83.8478	203.613	82.3185	203.613	83.7222	203.613	82.3179	203.613	83.6605	203.613	82.355	203.613	83.5958	203.613	82.4321	203.613	83.489	203.613	82.5535	203.613	83.3306	203.613	82.7195	203.613	83.1327	203.613	82.9198
210.938	86.518	210.938	86.0728	210.938	86.8712	210.938	85.564	210.938	87.1017	210.938	85.0166	210.938	87.1797	210.938	84.4532	210.938	87.0828	210.938	83.8955	210.938	86.8038	210.938	83.3651	210.938	86.3611	210.938	82.8834	210.938	85.8036	210.938	82.4688	210.938	85.2031	210.938	82.1335	210.938	84.624	210.938	81.8805	210.938	84.0918	210.938	81.7029	210.938	83.604	210.938	81.5866	210.938	83.1719	210.938	81.516	210.938	82.8256	210.938	81.4811	210.938	82.5701	210.938	81.4816	210.938	82.3675	210.938	81.5266	210.938	82.1734	210.938	81.6266	210.938	81.9727	210.938	81.7813
218.262	86.1791	218.262	85.7851	218.262	86.4728	218.262	85.315	218.262	86.6424	218.262	84.7932	218.262	86.6669	218.262	84.2458	218.262	86.5323	218.262	83.7013	218.262	86.2379	218.262	83.1904	218.262	85.8004	218.262	82.7435	218.262	85.2565	218.262	82.3856	218.262	84.6569	218.262	82.1322	218.262	84.0546	218.262	81.9852	218.262	83.4886	218.262	81.9323	218.262	82.9805	218.262	81.9497	218.262	82.5474	218.262	82.0065	218.262	82.2144	218.262	82.0711	218.262	82.0031	218.262	82.1165	218.262	81.9106	218.262	82.1256	218.262	81.9089	218.262	82.0945	218.262	81.9611	218.262	82.0327
225.586	86.4909	225.586	86.1798	225.586	86.6836	225.586	85.7542	225.586	86.7561	225.586	85.2236	225.586	86.7077	225.586	84.6051	225.586	86.5403	225.586	83.9258	225.586	86.2649	225.586	83.2222	225.586	85.9085	225.586	82.5373	225.586	85.5181	225.586	81.9146	225.586	85.152	225.586	81.3898	225.586	84.857	225.586	80.9838	225.586	84.6425	225.586	80.7032	225.586	84.473	225.586	80.5463	225.586	84.2901	225.586	80.5118	225.586	84.0474	225.586	80.6018	225.586	83.7312	225.586	80.8164	225.586	83.3534	225.586	81.1439	225.586	82.9318	225.586	81.5558	225.586	82.4803	225.586	82.0133
232.91	87.5236	232.91	87.3331	232.91	87.5436	232.91	86.9907	232.91	87.381	232.91	86.52	232.91	87.0336	232.91	85.9488	232.91	86.5165	232.91	85.3089	232.91	85.874	232.91	84.6354	232.91	85.1957	232.91	83.9661	232.91	84.6196	232.91	83.3377	232.91	84.2886	232.91	82.7798	232.91	84.2583	232.91	82.3071	232.91	84.4434	232.91	81.9144	232.91	84.676	232.91	81.5804	232.91	84.8051	232.91	81.2823	232.91	84.7418	232.91	81.0195	232.91	84.4516	232.91	80.8373	232.91	83.9379	232.91	80.8318	232.91	83.2388	232.91	81.1043	232.91	82.4385	232.91	81.6737
241.699	86.9432	241.699	86.5711	241.699	87.158	241.699	86.0731	241.699	87.1936	241.699	85.4867	241.699	87.0396	241.699	84.8524	241.699	86.6995	241.699	84.2098	241.699	86.1949	241.699	83.5941	241.699	85.5746	241.699	83.0326	241.699	84.9243	241.699	82.5414	241.699	84.3553	241.699	82.1228	241.699	83.9473	241.699	81.7661	241.699	83.6815	241.699	81.4509	241.699	83.4569	241.699	81.1546	241.699	83.1837	241.699	80.8613	241.699	82.8411	241.699	80.5746	241.699	82.4471	241.699	80.3296	241.699	82.0055	241.699	80.1962	241.699	81.5104	241.699	80.2546	241.699	80.9918	241.699	80.5375
250.488	87.5137	250.488	87.1496	250.488	87.6274	250.488	86.5816	250.488	87.4574	250.488	85.8649	250.488	86.9946	250.488	85.062	250.488	86.2695	250.488	84.243	250.488	85.3664	250.488	83.4834	250.488	84.4112	250.488	82.8548	250.488	83.5144	250.488	82.4053	250.488	82.7203	250.488	82.1399	250.488	82.0401	250.488	82.0145	250.488	81.4932	250.488	81.9489	250.488	81.0321	250.488	81.8491	250.488	80.477	250.488	81.622	250.488	79.6369	250.488	81.181	250.488	78.4673	250.488	80.4487	250.488	77.1084	250.488	79.3697	250.488	75.9353	250.488	77.9666	250.488	75.6188	250.488	76.4943
259.277	89.9124	259.277	89.3724	259.277	90.2115	259.277	88.637	259.277	90.2222	259.277	87.7484	259.277	89.8998	259.277	86.7459	259.277	89.2124	259.277	85.6686	259.277	88.1616	259.277	84.5638	259.277	86.8223	259.277	83.4975	259.277	85.3962	259.277	82.562	259.277	84.1972	259.277	81.8612	259.277	83.4397	259.277	81.4612	259.277	83.007	259.277	81.3375	259.277	82.5805	259.277	81.3793	259.277	81.9084	259.277	81.4467	259.277	80.9159	259.277	81.4225	259.277	79.7529	259.277	81.2314	259.277	78.82	259.277	80.8409	259.277	78.532	259.277	80.2625	259.277	78.8888	259.277	79.5611
268.066	89.9777	268.066	89.3879	268.066	90.3883	268.066	88.6772	268.066	90.5593	268.066	87.8937	268.066	90.4371	268.066	87.069	268.066	89.9836	268.066	86.2187	268.066	89.1919	268.066	85.3516	268.066	88.1165	268.066	84.486	268.066	86.9112	268.066	83.6703	268.066	85.8192	268.066	82.9996	268.066	85.0245	268.066	82.6057	268.066	84.4901	268.066	82.5932	268.066	84.0598	268.066	82.9522	268.066	83.6863	268.066	83.5497	268.066	83.4864	268.066	84.2124	268.066	83.6073	268.066	84.7987	268.066	84.039	268.066	85.2172	268.066	84.5977	268.066	85.4156	268.066	85.0815	268.066	85.3695
276.855	88.5098	276.855	87.9612	276.855	88.9135	276.855	87.317	276.855	89.1171	276.855	86.6164	276.855	89.0672	276.855	85.8885	276.855	88.7231	276.855	85.1543	276.855	88.0698	276.855	84.4307	276.855	87.1346	276.855	83.7344	276.855	86.0157	276.855	83.0883	276.855	84.9204	276.855	82.5267	276.855	84.1507	276.855	82.0984	276.855	83.9143	276.855	81.8606	276.855	84.1227	276.855	81.8623	276.855	84.5175	276.855	82.1185	276.855	84.9064	276.855	82.5936	276.855	85.206	276.855	83.2073	276.855	85.3812	276.855	83.8599	276.855	85.4061	276.855	84.4603	276.855	85.2611	276.855	84.9408
287.109	88.3286	287.109	87.5937	287.109	88.9534	287.109	86.8337	287.109	89.3599	287.109	86.0926	287.109	89.4391	287.109	85.3726	287.109	89.0994	287.109	84.6525	287.109	88.2871	287.109	83.9133	287.109	87.0198	287.109	83.1585	287.109	85.4481	287.109	82.426	287.109	83.9385	287.109	81.7885	287.109	83.0299	287.109	81.3366	287.109	82.9879	287.109	81.1384	287.109	83.4695	287.109	81.198	287.109	83.95	287.109	81.4487	287.109	84.1352	287.109	81.79	287.109	83.9887	287.109	82.1295	287.109	83.6373	287.109	82.4085	287.109	83.2578	287.109	82.6124	287.109	82.9678	287.109	82.7749
297.363	88.0181	297.363	87.4516	297.363	88.4692	297.363	86.797	297.363	88.7739	297.363	86.0802	297.363	88.8936	297.363	85.3249	297.363	88.7827	297.363	84.5518	297.363	88.3995	297.363	83.7809	297.363	87.7255	297.363	83.0365	297.363	86.788	297.363	82.3546	297.363	85.6813	297.363	81.7882	297.363	84.5814	297.363	81.4045	297.363	83.7366	297.363	81.263	297.363	83.3324	297.363	81.3805	297.363	83.2744	297.363	81.711	297.363	83.2981	297.363	82.163	297.363	83.2855	297.363	82.6364	297.363	83.2997	297.363	83.0487	297.363	83.3874	297.363	83.3422	297.363	83.4823	297.363	83.4856
307.617	87.3699	307.617	86.7577	307.617	87.9443	307.617	86.1599	307.617	88.3973	307.617	85.5897	307.617	88.6344	307.617	85.0308	307.617	88.5736	307.617	84.4564	307.617	88.1638	307.617	83.8457	307.617	87.4001	307.617	83.1959	307.617	86.339	307.617	82.5333	307.617	85.1073	307.617	81.925	307.617	83.8851	307.617	81.4819	307.617	82.8485	307.617	81.3279	307.617	82.1199	307.617	81.5224	307.617	81.7817	307.617	82.0003	307.617	81.8616	307.617	82.6084	307.617	82.2721	307.617	83.1908	307.617	82.8336	307.617	83.6389	307.617	83.3658	307.617	83.894	307.617	83.7504	307.617	83.9322
319.336	86.1126	319.336	85.6573	319.336	86.5726	319.336	85.2116	319.336	86.9852	319.336	84.7517	319.336	87.2631	319.336	84.2548	319.336	87.3143	319.336	83.7167	319.336	87.0649	319.336	83.1541	319.336	86.4713	319.336	82.5958	319.336	85.5388	319.336	82.0732	319.336	84.3648	319.336	81.6128	319.336	83.1715	319.336	81.2356	319.336	82.2505	319.336	80.9688	319.336	81.8234	319.336	80.8604	319.336	81.9429	319.336	80.9779	319.336	82.4719	319.336	81.366	319.336	83.1554	319.336	81.9876	319.336	83.752	319.336	82.7184	319.336	84.1094	319.336	83.4038	319.336	84.164	319.336	83.9143
329.59	86.9564	329.59	86.5997	329.59	87.2304	329.59	86.1769	329.59	87.3989	329.59	85.6929	329.59	87.4436	329.59	85.1425	329.59	87.3617	329.59	84.5154	329.59	87.1617	329.59	83.8053	329.59	86.8385	329.59	83.0233	329.59	86.3643	329.59	82.213	329.59	85.7371	329.59	81.4582	329.59	85.0554	329.59	80.8615	329.59	84.5183	329.59	80.4863	329.59	84.2849	329.59	80.3116	329.59	84.3347	329.59	80.2723	329.59	84.5389	329.59	80.3586	329.59	84.759	329.59	80.6675	329.59	84.8431	329.59	81.3129	329.59	84.6514	329.59	82.252	329.59	84.1145	329.59	83.2657
341.309	87.5819	341.309	87.2904	341.309	87.6686	341.309	86.8345	341.309	87.5343	341.309	86.2632	341.309	87.1979	341.309	85.6197	341.309	86.7131	341.309	84.93	341.309	86.1437	341.309	84.202	341.309	85.5214	341.309	83.439	341.309	84.8299	341.309	82.6651	341.309	84.0488	341.309	81.9577	341.309	83.2205	341.309	81.4588	341.309	82.4758	341.309	81.3151	341.309	81.9705	341.309	81.5456	341.309	81.7498	341.309	81.9893	341.309	81.6876	341.309	82.4111	341.309	81.5855	341.309	82.6203	341.309	81.3388	341.309	82.5123	341.309	81.0702	341.309	82.0888	341.309	81.0835	341.309	81.5058
353.027	86.9269	353.027	86.5214	353.027	87.2799	353.027	86.1287	353.027	87.4543	353.027	85.7444	353.027	87.3151	353.027	85.3233	353.027	86.7868	353.027	84.8151	353.027	85.9218	353.027	84.1845	353.027	84.9367	353.027	83.4217	353.027	84.1132	353.027	82.5535	353.027	83.5676	353.027	81.6635	353.027	83.2596	353.027	80.9151	353.027	83.2445	353.027	80.5275	353.027	83.6473	353.027	80.641	353.027	84.3755	353.027	81.1773	353.027	85.0918	353.027	81.9078	353.027	85.4993	353.027	82.63	353.027	85.5093	353.027	83.2486	353.027	85.2048	353.027	83.7683	353.027	84.7415	353.027	84.2502
366.211	87.4337	366.211	87.0527	366.211	87.7595	366.211	86.6739	366.211	87.9161	366.211	86.2939	366.211	87.77	366.211	85.8762	366.211	87.2166	366.211	85.3796	366.211	86.2379	366.211	84.7726	366.211	84.9868	366.211	84.0344	366.211	83.8404	366.211	83.1586	366.211	83.1628	366.211	82.1776	366.211	82.915	366.211	81.2222	366.211	82.8844	366.211	80.5773	366.211	83.0535	366.211	80.5419	366.211	83.3359	366.211	81.0736	366.211	83.4063	366.211	81.79	366.211	83.025	366.211	82.3307	366.211	82.2679	366.211	82.51	366.211	81.5603	366.211	82.293	366.211	81.4088	366.211	81.806
379.395	83.4034	379.395	82.8994	379.395	83.8144	379.395	82.4108	379.395	84.1019	379.395	82.0789	379.395	84.2416	379.395	81.9603	379.395	84.1412	379.395	81.9825	379.395	83.6978	379.395	82.0158	379.395	82.9592	379.395	81.9534	379.395	82.2312	379.395	81.7385	379.395	81.8612	379.395	81.3637	379.395	81.7886	379.395	80.8853	379.395	81.6988	379.395	80.4682	379.395	81.6434	379.395	80.4154	379.395	82.0867	379.395	81.0022	379.395	82.994	379.395	82.1472	379.395	83.8528	379.395	83.4599	379.395	84.5039	379.395	84.5812	379.395	85.0446	379.395	85.314	379.395	85.4587	379.395	85.5932
392.578	87.0178	392.578	86.2729	392.578	87.5726	392.578	85.3784	392.578	87.8389	392.578	84.3431	392.578	87.6781	392.578	83.1985	392.578	86.952	392.578	82.0396	392.578	85.5733	392.578	81.0143	392.578	83.5793	392.578	80.2437	392.578	81.2602	392.578	79.7366	392.578	79.2669	392.578	79.4046	392.578	78.2071	392.578	79.1611	392.578	77.8644	392.578	79.0057	392.578	77.7323	392.578	79.0458	392.578	78.0042	392.578	79.4199	392.578	79.1382	392.578	80.1332	392.578	80.5645	392.578	80.9927	392.578	81.5436	392.578	81.7411	392.578	82.0229	392.578	82.2036	392.578	82.2533	392.578	82.3441
405.762	86.178	405.762	85.5759	405.762	86.7022	405.762	84.9049	405.762	87.0911	405.762	84.1545	405.762	87.2466	405.762	83.3254	405.762	87.0583	405.762	82.435	405.762	86.4236	405.762	81.5024	405.762	85.2648	405.762	80.5337	405.762	83.6165	405.762	79.5261	405.762	81.881	405.762	78.4913	405.762	80.9327	405.762	77.5019	405.762	80.9172	405.762	76.7768	405.762	80.8052	405.762	76.7546	405.762	80.0712	405.762	77.7916	405.762	79.1395	405.762	79.5779	405.762	78.608	405.762	81.4163	405.762	78.9668	405.762	82.8034	405.762	80.4695	405.762	83.4747	405.762	82.2044	405.762	83.2878
420.41	86.253	420.41	85.8609	420.41	86.4957	420.41	85.2642	420.41	86.6205	420.41	84.4751	420.41	86.5168	420.41	83.5696	420.41	85.97	420.41	82.6389	420.41	84.8529	420.41	81.7446	420.41	83.3368	420.41	80.9011	420.41	81.9561	420.41	80.0857	420.41	81.1204	420.41	79.2703	420.41	80.6542	420.41	78.4656	420.41	80.32	420.41	77.7717	420.41	80.101	420.41	77.3919	420.41	79.9594	420.41	77.5268	420.41	79.9247	420.41	78.2063	420.41	80.2084	420.41	79.2626	420.41	80.8494	420.41	80.4184	420.41	81.5546	420.41	81.3828	420.41	81.9816	420.41	81.9367
435.059	86.0271	435.059	85.6568	435.059	86.3307	435.059	85.0996	435.059	86.6301	435.059	84.3072	435.059	86.8121	435.059	83.3372	435.059	86.6432	435.059	82.3233	435.059	85.9078	435.059	81.4154	435.059	84.4746	435.059	80.7101	435.059	82.3414	435.059	80.208	435.059	79.8918	435.059	79.8234	435.059	78.3874	435.059	79.4285	435.059	78.5669	435.059	78.9123	435.059	79.0784	435.059	78.2724	435.059	79.0691	435.059	77.7903	435.059	78.8416	435.059	78.0849	435.059	79.08	435.059	79.3758	435.059	80.0831	435.059	80.9866	435.059	81.4201	435.059	82.2115	435.059	82.4261	435.059	82.7215
451.172	86.3691	451.172	85.9189	451.172	86.1657	451.172	84.9447	451.172	85.3659	451.172	83.6083	451.172	84.4647	451.172	82.0627	451.172	84.2009	451.172	80.5163	451.172	84.4214	451.172	79.3126	451.172	84.276	451.172	78.766	451.172	83.319	451.172	78.808	451.172	81.6873	451.172	79.0671	451.172	80.0324	451.172	79.2303	451.172	79.2172	451.172	79.1557	451.172	79.397	451.172	78.8433	451.172	80.0074	451.172	78.4563	451.172	80.7201	451.172	78.4036	451.172	81.5411	451.172	79.1593	451.172	82.449	451.172	80.6231	451.172	83.2194	451.172	82.1431	451.172	83.5373	451.172	83.1869
465.82	88.1843	465.82	87.57	465.82	88.3201	465.82	86.5481	465.82	87.8426	465.82	85.1378	465.82	86.6363	465.82	83.3688	465.82	84.8162	465.82	81.328	465.82	83.0313	465.82	79.1626	465.82	82.1201	465.82	77.0908	465.82	81.9761	465.82	75.5103	465.82	82.0293	465.82	74.9787	465.82	81.9364	465.82	75.5831	465.82	81.4957	465.82	76.7176	465.82	80.7234	465.82	77.7794	465.82	79.942	465.82	78.4338	465.82	79.7277	465.82	78.5465	465.82	80.4908	465.82	78.2951	465.82	81.8123	465.82	78.4939	465.82	82.7569	465.82	79.8826	465.82	82.7362	465.82	81.6509
483.398	86.8373	483.398	85.8922	483.398	87.5881	483.398	84.7765	483.398	88.0178	483.398	83.5483	483.398	87.8549	483.398	82.3299	483.398	86.7865	483.398	81.2086	483.398	84.545	483.398	80.1564	483.398	81.0645	483.398	79.0674	483.398	77.4293	483.398	77.8412	483.398	76.5995	483.398	76.4416	483.398	78.1129	483.398	74.9636	483.398	79.895	483.398	73.7615	483.398	81.1266	483.398	73.4516	483.398	81.4704	483.398	74.3018	483.398	81.0062	483.398	75.7672	483.398	79.9408	483.398	77.0854	483.398	78.1888	483.398	77.7071	483.398	75.762	483.398	77.2808	483.398	74.3945	483.398	75.7504
499.512	85.6893	499.512	84.929	499.512	86.1499	499.512	83.9271	499.512	86.2865	499.512	82.7659	499.512	86.1024	499.512	81.509	499.512	85.6186	499.512	80.1598	499.512	84.8489	499.512	78.7003	499.512	83.7524	499.512	77.2159	499.512	82.2096	499.512	75.9821	499.512	80.07	499.512	75.3221	499.512	77.3437	499.512	75.3254	499.512	74.8894	499.512	75.8869	499.512	74.6052	499.512	76.8982	499.512	75.7706	499.512	78.1846	499.512	76.6489	499.512	79.4561	499.512	77.1914	499.512	80.4413	499.512	77.9959	499.512	80.9954	499.512	79.1174	499.512	81.1009	499.512	80.13	499.512	80.8027
517.09	86.3415	517.09	85.841	517.09	86.5193	517.09	85.0233	517.09	86.4034	517.09	83.9126	517.09	86.0455	517.09	82.5154	517.09	85.4837	517.09	80.7803	517.09	84.7077	517.09	78.5895	517.09	83.6629	517.09	75.8446	517.09	82.2989	517.09	72.8941	517.09	80.6253	517.09	71.5844	517.09	78.746	517.09	72.966	517.09	76.8439	517.09	74.94	517.09	75.1138	517.09	76.4751	517.09	73.7643	517.09	77.5606	517.09	73.3821	517.09	78.4057	517.09	74.8323	517.09	79.2129	517.09	77.3382	517.09	80.0411	517.09	79.4611	517.09	80.7436	517.09	80.6908	517.09	81.0509
536.133	86.5748	536.133	86.1533	536.133	86.7416	536.133	85.4725	536.133	86.6461	536.133	84.5204	536.133	86.2708	536.133	83.2897	536.133	85.5996	536.133	81.7982	536.133	84.6189	536.133	80.1326	536.133	83.2669	536.133	78.5097	536.133	81.3293	536.133	77.2251	536.133	78.3424	536.133	76.3635	536.133	73.3698	536.133	75.658	536.133	66.0937	536.133	74.8885	536.133	71.2558	536.133	74.5461	536.133	75.771	536.133	75.6149	536.133	77.5486	536.133	77.6406	536.133	77.8137	536.133	79.4829	536.133	78.0921	536.133	80.7105	536.133	79.3038	536.133	81.2921	536.133	80.5767	536.133	81.2569
555.176	87.1276	555.176	86.763	555.176	86.9541	555.176	85.8732	555.176	86.3166	555.176	84.545	555.176	85.4198	555.176	82.9676	555.176	84.5896	555.176	81.4137	555.176	84.0838	555.176	80.0509	555.176	83.803	555.176	78.7585	555.176	83.294	555.176	77.203	555.176	82.0649	555.176	75.0869	555.176	79.8053	555.176	72.8167	555.176	76.3184	555.176	72.3872	555.176	71.244	555.176	73.9298	555.176	67.0433	555.176	75.4653	555.176	71.662	555.176	76.6003	555.176	76.141	555.176	77.7154	555.176	79.0716	555.176	79.0166	555.176	80.7568	555.176	80.2749	555.176	81.3834	555.176	81.1499
574.219	88.014	574.219	87.5	574.219	87.9613	574.219	86.452	574.219	87.3519	574.219	84.9653	574.219	86.2119	574.219	83.2153	574.219	84.5579	574.219	81.4709	574.219	82.5209	574.219	80.0575	574.219	80.7942	574.219	79.1471	574.219	80.1917	574.219	78.4922	574.219	80.1944	574.219	77.5937	574.219	80.1731	574.219	76.1947	574.219	79.7185	574.219	74.8338	574.219	78.3237	574.219	74.8309	574.219	76.3037	574.219	75.9976	574.219	75.2254	574.219	77.0703	574.219	76.6727	574.219	77.7609	574.219	79.3354	574.219	78.4959	574.219	81.0954	574.219	79.6378	574.219	81.5171	574.219	80.8629
594.727	87.9002	594.727	86.9997	594.727	88.2553	594.727	85.5866	594.727	88.0594	594.727	83.7612	594.727	87.2987	594.727	81.6971	594.727	85.9237	594.727	79.6352	594.727	83.8403	594.727	78.0156	594.727	80.9984	594.727	77.2655	594.727	77.7655	594.727	76.8607	594.727	76.0099	594.727	75.7615	594.727	77.1964	594.727	73.3055	594.727	78.7475	594.727	69.755	594.727	79.1652	594.727	69.8949	594.727	78.1825	594.727	73.713	594.727	75.5438	594.727	76.585	594.727	73.2802	594.727	78.3093	594.727	76.4931	594.727	79.326	594.727	79.4356	594.727	80.0395	594.727	80.5773	594.727	80.5675
615.234	87.6018	615.234	87.0383	615.234	87.7792	615.234	86.1715	615.234	87.4804	615.234	85.0489	615.234	86.6299	615.234	83.6676	615.234	85.1813	615.234	81.9711	615.234	83.1647	615.234	79.8895	615.234	80.7682	615.234	77.5549	615.234	78.3305	615.234	75.6616	615.234	76.1264	615.234	75.0195	615.234	74.1397	615.234	75.2455	615.234	73.2636	615.234	75.2832	615.234	75.1951	615.234	74.292	615.234	76.8921	615.234	71.9473	615.234	76.2667	615.234	70.5185	615.234	72.9992	615.234	73.1976	615.234	70.3692	615.234	75.9162	615.234	73.4974	615.234	77.238	615.234	76.128	615.234	77.2902
637.207	86.4904	637.207	85.7101	637.207	87.012	637.207	84.6517	637.207	87.2274	637.207	83.2409	637.207	87.0373	637.207	81.4388	637.207	86.2609	637.207	79.3804	637.207	84.5997	637.207	77.4384	637.207	81.7041	637.207	76.0233	637.207	77.3413	637.207	75.2971	637.207	72.4232	637.207	75.2425	637.207	72.2201	637.207	75.6122	637.207	73.8084	637.207	75.7791	637.207	75.0212	637.207	75.2892	637.207	76.8846	637.207	74.4321	637.207	76.987	637.207	74.2923	637.207	74.0285	637.207	75.0314	637.207	69.798	637.207	75.4074	637.207	70.6938	637.207	74.7999	637.207	72.2805	637.207	73.5316
659.18	87.0502	659.18	86.6723	659.18	87.0996	659.18	85.9567	659.18	86.8146	659.18	84.8774	659.18	86.1975	659.18	83.4061	659.18	85.2807	659.18	81.5297	659.18	84.0678	659.18	79.2638	659.18	82.3782	659.18	76.68	659.18	79.7849	659.18	74.0142	659.18	75.5258	659.18	71.988	659.18	68.0845	659.18	71.5931	659.18	68.0003	659.18	72.4239	659.18	72.5908	659.18	73.2568	659.18	74.6728	659.18	73.598	659.18	75.7523	659.18	73.8335	659.18	75.6042	659.18	74.6662	659.18	74.2794	659.18	75.8582	659.18	73.7074	659.18	76.5831	659.18	75.0797	659.18	76.3491
682.617	87.633	682.617	86.9494	682.617	87.5661	682.617	85.4747	682.617	86.9108	682.617	83.4158	682.617	85.8592	682.617	81.3459	682.617	84.5057	682.617	79.8783	682.617	82.7722	682.617	78.8612	682.617	80.6892	682.617	77.6637	682.617	78.8279	682.617	76.2004	682.617	77.0892	682.617	74.7472	682.617	73.0091	682.617	73.2839	682.617	54.0799	682.617	72.3936	682.617	69.4392	682.617	73.3455	682.617	72.811	682.617	75.1279	682.617	73.044	682.617	76.161	682.617	74.1976	682.617	76.2665	682.617	76.4522	682.617	76.3513	682.617	78.0427	682.617	77.2146	682.617	78.5282	682.617	78.1735
707.52	87.0973	707.52	86.2073	707.52	87.5563	707.52	85.1391	707.52	87.3822	707.52	83.9858	707.52	86.4893	707.52	82.5393	707.52	84.895	707.52	80.4901	707.52	82.6103	707.52	77.7042	707.52	79.6394	707.52	74.4498	707.52	76.7447	707.52	71.6795	707.52	75.7902	707.52	70.6396	707.52	76.0375	707.52	70.8929	707.52	74.812	707.52	71.0897	707.52	69.7326	707.52	71.6259	707.52	70.8329	707.52	73.3403	707.52	76.0496	707.52	75.0363	707.52	77.2883	707.52	75.8051	707.52	77.1873	707.52	75.9993	707.52	77.6512	707.52	76.5436	707.52	77.9957	707.52	77.496
732.422	85.6512	732.422	85.3295	732.422	85.607	732.422	84.623	732.422	85.2814	732.422	83.5394	732.422	84.7497	732.422	82.0401	732.422	83.9214	732.422	80.06	732.422	82.4697	732.422	77.6374	732.422	80.0352	732.422	75.1199	732.422	76.679	732.422	73.2076	732.422	73.3186	732.422	72.1825	732.422	72.3178	732.422	71.4709	732.422	71.164	732.422	70.3476	732.422	68.6866	732.422	68.3518	732.422	72.0979	732.422	67.6489	732.422	73.3449	732.422	71.5387	732.422	72.1063	732.422	74.9574	732.422	69.7483	732.422	76.1487	732.422	66.8769	732.422	74.9678	732.422	67.1517	732.422	71.4502
757.324	86.0956	757.324	85.2465	757.324	86.5896	757.324	84.2903	757.324	86.5027	757.324	83.2206	757.324	85.7043	757.324	81.7431	757.324	84.0452	757.324	79.5501	757.324	81.4169	757.324	76.624	757.324	78.2927	757.324	73.5461	757.324	75.7359	757.324	71.4908	757.324	73.6479	757.324	71.2464	757.324	70.9929	757.324	71.8248	757.324	67.1593	757.324	71.9676	757.324	60.2616	757.324	71.4207	757.324	62.6455	757.324	71.0003	757.324	70.6405	757.324	72.0145	757.324	73.6979	757.324	73.6018	757.324	74.4678	757.324	74.4885	757.324	74.7211	757.324	74.7173	757.324	74.9709	757.324	74.8717
785.156	85.3846	785.156	85.1689	785.156	85.1507	785.156	84.4286	785.156	84.7106	785.156	83.2887	785.156	84.2496	785.156	81.8924	785.156	83.7162	785.156	80.1622	785.156	82.7651	785.156	77.8975	785.156	80.3782	785.156	75.386	785.156	75.1055	785.156	73.4444	785.156	67.6161	785.156	72.0826	785.156	70.2546	785.156	71.0792	785.156	73.1747	785.156	71.3247	785.156	68.9194	785.156	72.1058	785.156	70.3836	785.156	72.3767	785.156	73.9977	785.156	73.1984	785.156	73.8754	785.156	74.6536	785.156	71.6554	785.156	75.2811	785.156	69.3792	785.156	74.6776	785.156	70.9303	785.156	73.2025
811.523	87.8892	811.523	86.9888	811.523	88.0354	811.523	85.546	811.523	87.4094	811.523	83.8241	811.523	86.182	811.523	81.9591	811.523	84.6617	811.523	79.9268	811.523	83.128	811.523	77.7202	811.523	81.3977	811.523	75.5528	811.523	79.0373	811.523	73.6831	811.523	75.144	811.523	72.5209	811.523	68.029	811.523	72.565	811.523	71.2741	811.523	73.1484	811.523	67.2994	811.523	73.4626	811.523	66.216	811.523	73.5399	811.523	72.5932	811.523	73.9169	811.523	74.0483	811.523	74.7105	811.523	75.0931	811.523	75.5679	811.523	75.6167	811.523	76.2825	811.523	76.0526	811.523	76.4895
840.82	88.0348	840.82	87.8896	840.82	87.7209	840.82	87.0834	840.82	87.0309	840.82	85.4432	840.82	86.0458	840.82	83.0571	840.82	84.9451	840.82	80.3526	840.82	83.7035	840.82	77.616	840.82	81.8702	840.82	74.2106	840.82	78.7769	840.82	69.5509	840.82	74.3569	840.82	67.7672	840.82	68.7344	840.82	70.0411	840.82	68.1153	840.82	71.8499	840.82	71.262	840.82	73.4737	840.82	68.9851	840.82	74.9076	840.82	70.3617	840.82	75.7323	840.82	74.4618	840.82	76.7192	840.82	75.4398	840.82	78.1642	840.82	75.9639	840.82	78.9925	840.82	77.2797	840.82	78.6184
870.117	88.6865	870.117	88.1968	870.117	88.724	870.117	87.2052	870.117	88.308	870.117	85.5309	870.117	87.4549	870.117	83.0502	870.117	86.225	870.117	80.0297	870.117	84.7235	870.117	77.0906	870.117	82.7444	870.117	74.5194	870.117	79.5833	870.117	71.4274	870.117	75.0422	870.117	65.2129	870.117	69.5859	870.117	54.9523	870.117	64.043	870.117	66.9431	870.117	63.5821	870.117	71.2417	870.117	70.6938	870.117	72.6271	870.117	73.0516	870.117	74.0926	870.117	73.7697	870.117	76.8547	870.117	74.9213	870.117	78.2287	870.117	75.1478	870.117	77.2265	870.117	74.2645	870.117	74.9013
900.879	88.7984	900.879	88.0487	900.879	89.0287	900.879	86.633	900.879	88.7614	900.879	84.5403	900.879	87.7958	900.879	81.846	900.879	86.0591	900.879	78.5256	900.879	83.9673	900.879	75.0771	900.879	81.7562	900.879	72.8237	900.879	78.8894	900.879	71.8513	900.879	75.6248	900.879	70.9661	900.879	72.0142	900.879	68.0801	900.879	66.5958	900.879	52.8785	900.879	49.2485	900.879	67.2959	900.879	68.4822	900.879	73.1137	900.879	71.3537	900.879	74.5379	900.879	70.6295	900.879	74.1848	900.879	69.6153	900.879	75.0459	900.879	72.9644	900.879	77.2113	900.879	76.6912	900.879	78.0853
933.105	88.6344	933.105	87.6148	933.105	89.0053	933.105	86.2342	933.105	88.5128	933.105	84.517	933.105	87.3329	933.105	82.1403	933.105	86.035	933.105	78.6293	933.105	84.8515	933.105	73.8881	933.105	83.1456	933.105	70.0927	933.105	80.025	933.105	68.6005	933.105	74.7289	933.105	65.9068	933.105	68.1942	933.105	62.8488	933.105	67.5832	933.105	59.9244	933.105	55.3077	933.105	55.7815	933.105	64.6725	933.105	66.1209	933.105	67.1122	933.105	72.4577	933.105	71.258	933.105	75.3253	933.105	74.6119	933.105	76.0919	933.105	75.1158	933.105	75.8225	933.105	75.541	933.105	75.7403
965.332	88.0897	965.332	87.0024	965.332	88.5012	965.332	85.3929	965.332	88.3241	965.332	83.5818	965.332	87.627	965.332	81.3052	965.332	86.2618	965.332	77.4771	965.332	83.9185	965.332	70.9306	965.332	80.3651	965.332	61.7357	965.332	75.8549	965.332	62.4096	965.332	72.2898	965.332	66.8582	965.332	68.0823	965.332	67.2742	965.332	62.9068	965.332	62.539	965.332	68.127	965.332	48.571	965.332	65.9659	965.332	57.6082	965.332	70.5013	965.332	66.3535	965.332	74.4153	965.332	71.4527	965.332	75.7495	965.332	73.8093	965.332	74.1342	965.332	73.1838	965.332	71.4633	965.332	70.8121
1000.49	87.6788	1000.49	87.0717	1000.49	87.8969	1000.49	85.4349	1000.49	87.939	1000.49	82.4554	1000.49	87.2567	1000.49	78.368	1000.49	85.4183	1000.49	73.9302	1000.49	82.7098	1000.49	69.485	1000.49	79.373	1000.49	61.5459	1000.49	74.5904	1000.49	53.3853	1000.49	68.1824	1000.49	61.8491	1000.49	65.9797	1000.49	63.4058	1000.49	65.8473	1000.49	62.9464	1000.49	51.7984	1000.49	60.5821	1000.49	65.5528	1000.49	49.3855	1000.49	69.0481	1000.49	64.112	1000.49	73.2654	1000.49	72.6416	1000.49	74.6432	1000.49	76.1032	1000.49	74.6322	1000.49	76.4942	1000.49	74.2429	1000.49	75.0706
1035.64	88.1792	1035.64	87.3949	1035.64	88.3738	1035.64	85.8699	1035.64	87.7439	1035.64	83.0938	1035.64	86.1133	1035.64	78.8729	1035.64	83.6324	1035.64	73.4169	1035.64	80.4966	1035.64	66.3288	1035.64	76.2772	1035.64	55.3013	1035.64	70.4229	1035.64	51.4807	1035.64	65.5344	1035.64	56.5035	1035.64	65.0094	1035.64	58.435	1035.64	64.4077	1035.64	55.4346	1035.64	59.0797	1035.64	52.7855	1035.64	62.2179	1035.64	50.8959	1035.64	71.8326	1035.64	59.804	1035.64	72.531	1035.64	67.7612	1035.64	69.4744	1035.64	72.6111	1035.64	68.0715	1035.64	74.7321	1035.64	71.0309	1035.64	74.1164
1072.27	87.7712	1072.27	86.9675	1072.27	87.7772	1072.27	85.4401	1072.27	86.8346	1072.27	82.895	1072.27	85.0749	1072.27	78.7518	1072.27	82.7031	1072.27	72.0218	1072.27	79.5003	1072.27	60.6373	1072.27	75.4935	1072.27	53.1833	1072.27	70.3102	1072.27	59.8469	1072.27	67.3032	1072.27	54.3043	1072.27	63.5575	1072.27	38.4017	1072.27	62.2479	1072.27	46.641	1072.27	62.2225	1072.27	56.5834	1072.27	68.4644	1072.27	59.1787	1072.27	68.3497	1072.27	48.9595	1072.27	68.5097	1072.27	62.9353	1072.27	72.8995	1072.27	69.4528	1072.27	73.8181	1072.27	72.0576	1072.27	72.8823	1072.27	72.6892
1108.89	88.5888	1108.89	87.6272	1108.89	88.7343	1108.89	85.4289	1108.89	88.1442	1108.89	81.9152	1108.89	86.5401	1108.89	77.4904	1108.89	83.6553	1108.89	71.0422	1108.89	79.5317	1108.89	46.4136	1108.89	74.4147	1108.89	65.6017	1108.89	69.873	1108.89	67.7127	1108.89	66.2104	1108.89	67.317	1108.89	60.7979	1108.89	64.3485	1108.89	65.6507	1108.89	53.0059	1108.89	67.1598	1108.89	48.1667	1108.89	62.14	1108.89	50.9615	1108.89	69.1844	1108.89	61.3304	1108.89	74.2161	1108.89	61.8114	1108.89	74.5908	1108.89	68.1179	1108.89	75.0447	1108.89	73.3011	1108.89	75.6624	1108.89	75.2107
1148.44	88.6614	1148.44	87.8468	1148.44	88.6323	1148.44	85.5342	1148.44	88.1219	1148.44	81.365	1148.44	86.7322	1148.44	75.3963	1148.44	83.9261	1148.44	66.6271	1148.44	79.7113	1148.44	53.2045	1148.44	73.0462	1148.44	65.2116	1148.44	64.0231	1148.44	68.7555	1148.44	66.5314	1148.44	69.627	1148.44	66.9423	1148.44	67.2406	1148.44	57.1222	1148.44	60.886	1148.44	65.2604	1148.44	54.5961	1148.44	59.207	1148.44	48.2624	1148.44	57.2784	1148.44	57.1488	1148.44	66.0188	1148.44	64.094	1148.44	73.8146	1148.44	68.0905	1148.44	74.5679	1148.44	70.8805	1148.44	72.0947	1148.44	70.6371
1189.45	88.4922	1189.45	87.6827	1189.45	88.6533	1189.45	85.4204	1189.45	88.1049	1189.45	80.7269	1189.45	86.3111	1189.45	73.3818	1189.45	83.1936	1189.45	63.5659	1189.45	79.071	1189.45	56.3707	1189.45	72.7511	1189.45	65.0534	1189.45	69.3972	1189.45	68.5054	1189.45	66.8355	1189.45	68.1863	1189.45	66.2754	1189.45	65.156	1189.45	67.4429	1189.45	64.1214	1189.45	59.0688	1189.45	59.2948	1189.45	61.7517	1189.45	54.9996	1189.45	64.1124	1189.45	46.4745	1189.45	67.1486	1189.45	63.8726	1189.45	64.121	1189.45	69.5052	1189.45	67.725	1189.45	72.2242	1189.45	70.3866	1189.45	72.4955
1230.47	88.4503	1230.47	87.127	1230.47	88.4228	1230.47	84.2238	1230.47	87.416	1230.47	79.3678	1230.47	85.4576	1230.47	71.9091	1230.47	82.1475	1230.47	60.2083	1230.47	76.5408	1230.47	47.9922	1230.47	65.2028	1230.47	62.2725	1230.47	69.01	1230.47	68.536	1230.47	71.5139	1230.47	69.8226	1230.47	71.1607	1230.47	68.2364	1230.47	65.5027	1230.47	65.8716	1230.47	64.7018	1230.47	58.5025	1230.47	61.7531	1230.47	61.8329	1230.47	62.9481	1230.47	56.6541	1230.47	69.1716	1230.47	60.1495	1230.47	72.2986	1230.47	67.536	1230.47	72.2636	1230.47	72.236	1230.47	71.1801	1230.47	72.8979
1274.41	87.6732	1274.41	86.83	1274.41	87.2749	1274.41	83.5737	1274.41	86.3381	1274.41	77.7337	1274.41	84.2329	1274.41	69.9647	1274.41	79.6523	1274.41	60.6687	1274.41	72.9813	1274.41	65.7949	1274.41	68.3644	1274.41	67.3196	1274.41	73.1568	1274.41	69.0806	1274.41	71.7829	1274.41	68.0857	1274.41	69.8916	1274.41	69.2505	1274.41	70.377	1274.41	66.9568	1274.41	59.746	1274.41	62.8921	1274.41	64.916	1274.41	62.1684	1274.41	57.8757	1274.41	58.3738	1274.41	52.7595	1274.41	52.4378	1274.41	68.3247	1274.41	65.7059	1274.41	72.8533	1274.41	70.7137	1274.41	73.447	1274.41	72.4158
1319.82	87.8643	1319.82	86.5381	1319.82	87.142	1319.82	82.6317	1319.82	85.3504	1319.82	76.4384	1319.82	82.7349	1319.82	65.6264	1319.82	78.935	1319.82	65.2417	1319.82	73.1078	1319.82	70.1551	1319.82	70.8334	1319.82	70.3784	1319.82	74.8758	1319.82	71.7163	1319.82	74.5934	1319.82	71.4481	1319.82	69.7719	1319.82	69.2625	1319.82	64.4053	1319.82	66.1931	1319.82	65.0992	1319.82	68.206	1319.82	55.4167	1319.82	61.5676	1319.82	66.5636	1319.82	56.3375	1319.82	66.0208	1319.82	51.9874	1319.82	59.8846	1319.82	65.0377	1319.82	60.5378	1319.82	69.8381	1319.82	68.1063	1319.82	71.4717
1366.7	88.3686	1366.7	86.7167	1366.7	87.5779	1366.7	82.5675	1366.7	85.4981	1366.7	75.8458	1366.7	83.1028	1366.7	60.8068	1366.7	78.8068	1366.7	71.5946	1366.7	71.4307	1366.7	73.9321	1366.7	71.7492	1366.7	72.6444	1366.7	75.7653	1366.7	70.5619	1366.7	75.0346	1366.7	69.5009	1366.7	71.3628	1366.7	70.1579	1366.7	70.2247	1366.7	66.8728	1366.7	59.3017	1366.7	68.6028	1366.7	54.219	1366.7	66.1919	1366.7	56.7229	1366.7	51.393	1366.7	66.5466	1366.7	58.8231	1366.7	72.4007	1366.7	62.5302	1366.7	72.7891	1366.7	71.6852	1366.7	71.0479	1366.7	72.9938
1413.57	88.3928	1413.57	86.6979	1413.57	87.8892	1413.57	82.0822	1413.57	86.0271	1413.57	72.4	1413.57	83.2579	1413.57	66.7557	1413.57	78.1853	1413.57	74.5358	1413.57	70.5429	1413.57	74.9568	1413.57	71.7575	1413.57	74.3406	1413.57	77.7789	1413.57	72.718	1413.57	77.1804	1413.57	72.6597	1413.57	73.8403	1413.57	71.9387	1413.57	68.585	1413.57	68.2608	1413.57	61.0621	1413.57	65.4088	1413.57	56.3111	1413.57	66.9755	1413.57	61.9906	1413.57	61.5639	1413.57	62.8497	1413.57	61.4514	1413.57	71.2479	1413.57	63.3101	1413.57	73.4199	1413.57	70.8622	1413.57	74.2084	1413.57	73.428
1463.38	88.6412	1463.38	86.4314	1463.38	88.1408	1463.38	81.27	1463.38	85.9478	1463.38	71.9946	1463.38	82.9937	1463.38	66.4879	1463.38	78.2067	1463.38	74.7166	1463.38	67.4015	1463.38	75.2507	1463.38	72.9965	1463.38	74.0634	1463.38	77.5889	1463.38	73.685	1463.38	76.8523	1463.38	73.0877	1463.38	71.5348	1463.38	72.1478	1463.38	74.8331	1463.38	68.5059	1463.38	64.2212	1463.38	66.5282	1463.38	58.2153	1463.38	68.8412	1463.38	60.2225	1463.38	63.8464	1463.38	61.6669	1463.38	57.3848	1463.38	65.7037	1463.38	66.0154	1463.38	67.4203	1463.38	71.0771	1463.38	68.5305	1463.38	71.9946
1516.11	87.9457	1516.11	85.1997	1516.11	87.7103	1516.11	80.0153	1516.11	85.1418	1516.11	69.033	1516.11	81.8396	1516.11	69.0667	1516.11	76.4014	1516.11	73.754	1516.11	68.0339	1516.11	74.2838	1516.11	74.7667	1516.11	73.6602	1516.11	77.4706	1516.11	69.0453	1516.11	77.4979	1516.11	63.7045	1516.11	73.3909	1516.11	68.4955	1516.11	72.2495	1516.11	70.2165	1516.11	63.6675	1516.11	65.3531	1516.11	51.2919	1516.11	66.3035	1516.11	60.7594	1516.11	66.2073	1516.11	64.7462	1516.11	53.8456	1516.11	67.7179	1516.11	65.7383	1516.11	67.7831	1516.11	68.7496	1516.11	69.4643	1516.11	72.5565
1568.85	87.4968	1568.85	84.7101	1568.85	86.9561	1568.85	79.1105	1568.85	83.7723	1568.85	67.4412	1568.85	79.269	1568.85	70.3815	1568.85	72.3968	1568.85	74.9473	1568.85	69.887	1568.85	75.1115	1568.85	74.4719	1568.85	73.3148	1568.85	77.8863	1568.85	71.9875	1568.85	76.1842	1568.85	69.6246	1568.85	71.8627	1568.85	67.3869	1568.85	71.3568	1568.85	68.9152	1568.85	64.2119	1568.85	66.0215	1568.85	61.1636	1568.85	65.5964	1568.85	56.1606	1568.85	63.8176	1568.85	62.8207	1568.85	51.6978	1568.85	70.7446	1568.85	63.0152	1568.85	71.1492	1568.85	68.5498	1568.85	70.2867	1568.85	72.3761
1624.51	87.4528	1624.51	85.0755	1624.51	86.9162	1624.51	79.646	1624.51	83.3181	1624.51	62.2581	1624.51	77.7409	1624.51	72.6232	1624.51	70.2503	1624.51	76.4439	1624.51	68.2839	1624.51	76.8346	1624.51	75.9602	1624.51	76.5412	1624.51	78.8581	1624.51	75.2026	1624.51	77.518	1624.51	73.2984	1624.51	71.2769	1624.51	70.9535	1624.51	71.9916	1624.51	67.719	1624.51	60.3267	1624.51	69.1017	1624.51	58.2866	1624.51	68.6458	1624.51	59.4818	1624.51	65.7151	1624.51	55.5084	1624.51	55.9298	1624.51	69.3917	1624.51	64.9219	1624.51	72.5096	1624.51	66.5324	1624.51	72.7304	1624.51	72.2702
1681.64	87.7636	1681.64	84.6089	1681.64	88.0112	1681.64	78.3375	1681.64	84.5732	1681.64	64.9672	1681.64	77.1897	1681.64	75.832	1681.64	70.5942	1681.64	77.2663	1681.64	73.7616	1681.64	78.7034	1681.64	77.3406	1681.64	76.7404	1681.64	79.647	1681.64	74.4183	1681.64	79.4533	1681.64	72.0867	1681.64	75.9074	1681.64	70.2724	1681.64	67.8406	1681.64	66.9958	1681.64	61.987	1681.64	69.6724	1681.64	60.4494	1681.64	68.6655	1681.64	60.9337	1681.64	66.4997	1681.64	54.856	1681.64	61.975	1681.64	60.6173	1681.64	64.0503	1681.64	71.0277	1681.64	70.4602	1681.64	72.3599	1681.64	71.4284
1741.7	87.7943	1741.7	84.4717	1741.7	88.2737	1741.7	77.4089	1741.7	84.8075	1741.7	67.5738	1741.7	77.2059	1741.7	76.813	1741.7	71.1601	1741.7	79.0711	1741.7	73.1461	1741.7	79.2384	1741.7	77.0492	1741.7	76.847	1741.7	80.863	1741.7	73.6579	1741.7	79.6174	1741.7	69.2286	1741.7	73.7933	1741.7	71.4749	1741.7	71.389	1741.7	73.2947	1741.7	68.6566	1741.7	68.6642	1741.7	65.051	1741.7	68.2867	1741.7	52.6957	1741.7	64.3149	1741.7	60.2428	1741.7	63.8891	1741.7	59.869	1741.7	64.4323	1741.7	66.5558	1741.7	68.693	1741.7	70.0152	1741.7	71.1522
1803.22	87.8111	1803.22	83.8175	1803.22	87.8016	1803.22	76.0911	1803.22	83.0515	1803.22	69.5997	1803.22	74.3628	1803.22	76.675	1803.22	69.2163	1803.22	79.2663	1803.22	73.229	1803.22	79.0006	1803.22	76.5514	1803.22	77.1472	1803.22	80.1678	1803.22	75.0623	1803.22	79.5005	1803.22	72.9628	1803.22	75.9686	1803.22	72.1801	1803.22	73.6297	1803.22	70.9836	1803.22	66.4388	1803.22	68.0897	1803.22	58.0781	1803.22	67.9089	1803.22	55.9216	1803.22	67.4553	1803.22	60.1684	1803.22	64.2313	1803.22	65.9604	1803.22	55.4829	1803.22	63.3481	1803.22	68.1996	1803.22	70.078	1803.22	70.0894
1866.21	87.3377	1866.21	83.4199	1866.21	86.944	1866.21	73.6962	1866.21	81.1595	1866.21	71.0104	1866.21	67.4266	1866.21	78.0715	1866.21	71.3232	1866.21	80.0695	1866.21	70.0832	1866.21	77.9562	1866.21	76.124	1866.21	76.3018	1866.21	80.7856	1866.21	75.526	1866.21	80.5153	1866.21	73.3041	1866.21	76.4947	1866.21	73.9147	1866.21	67.8531	1866.21	68.1671	1866.21	60.1979	1866.21	71.6353	1866.21	53.7424	1866.21	67.8529	1866.21	59.6552	1866.21	69.0281	1866.21	56.2565	1866.21	59.6547	1866.21	49.5257	1866.21	64.6633	1866.21	66.5306	1866.21	67.9195	1866.21	71.243	1866.21	71.4894
1932.13	86.8732	1932.13	83.3506	1932.13	86.4551	1932.13	73.3265	1932.13	79.2889	1932.13	73.8074	1932.13	73.8334	1932.13	78.9965	1932.13	73.5855	1932.13	79.2601	1932.13	69.8038	1932.13	77.6093	1932.13	77.4381	1932.13	75.4431	1932.13	81.9243	1932.13	75.3743	1932.13	81.5051	1932.13	73.3495	1932.13	77.354	1932.13	70.4943	1932.13	68.7163	1932.13	68.5502	1932.13	66.2973	1932.13	69.2483	1932.13	52.1873	1932.13	69.8163	1932.13	53.8463	1932.13	66.5939	1932.13	58.4918	1932.13	65.592	1932.13	57.5146	1932.13	58.9259	1932.13	62.1862	1932.13	62.8323	1932.13	71.3157	1932.13	71.0243
1999.51	86.841	1999.51	82.7789	1999.51	86.6838	1999.51	73.1495	1999.51	80.0695	1999.51	76.0454	1999.51	75.5894	1999.51	79.6532	1999.51	74.4848	1999.51	78.0806	1999.51	68.4687	1999.51	78.3776	1999.51	79.1963	1999.51	74.8796	1999.51	83.024	1999.51	74.7415	1999.51	83.1773	1999.51	71.468	1999.51	78.1223	1999.51	62.351	1999.51	68.8185	1999.51	72.5079	1999.51	68.767	1999.51	61.6264	1999.51	56.9274	1999.51	71.0196	1999.51	54.4601	1999.51	63.212	1999.51	36.7101	1999.51	68.0619	1999.51	61.8572	1999.51	60.6337	1999.51	60.0636	1999.51	66.494	1999.51	70.9164	1999.51	70.419
2069.82	86.9386	2069.82	83.1682	2069.82	86.5202	2069.82	69.8006	2069.82	78.7884	2069.82	77.8036	2069.82	74.723	2069.82	77.8543	2069.82	69.8033	2069.82	76.6926	2069.82	66.6568	2069.82	77.3383	2069.82	80.5033	2069.82	75.3952	2069.82	84.3907	2069.82	73.4849	2069.82	83.5092	2069.82	71.639	2069.82	78.3667	2069.82	69.2169	2069.82	74.467	2069.82	72.1203	2069.82	68.5616	2069.82	70.986	2069.82	57.3294	2069.82	68.7711	2069.82	52.4846	2069.82	68.0298	2069.82	59.4514	2069.82	61.1071	2069.82	65.7686	2069.82	61.0049	2069.82	53.6316	2069.82	60.6574	2069.82	69.7542	2069.82	67.7114
2143.07	86.6506	2143.07	82.7097	2143.07	85.3047	2143.07	69.9393	2143.07	74.2263	2143.07	79.1405	2143.07	78.2989	2143.07	78.5282	2143.07	72.5582	2143.07	77.2823	2143.07	72.5739	2143.07	77.9571	2143.07	81.4236	2143.07	77.9899	2143.07	84.7089	2143.07	74.9449	2143.07	83.3454	2143.07	73.5935	2143.07	79.0734	2143.07	71.4454	2143.07	70.2024	2143.07	74.5314	2143.07	65.8758	2143.07	72.4173	2143.07	59.8506	2143.07	72.6228	2143.07	61.2	2143.07	70.68	2143.07	54.3952	2143.07	66.6531	2143.07	63.628	2143.07	66.2404	2143.07	60.9167	2143.07	64.4272	2143.07	71.1077	2143.07	67.4936
2219.24	86.6551	2219.24	82.2998	2219.24	84.0987	2219.24	74.6498	2219.24	74.8558	2219.24	79.8535	2219.24	79.9342	2219.24	76.6538	2219.24	67.1045	2219.24	74.7883	2219.24	77.5955	2219.24	76.9128	2219.24	83.0682	2219.24	77.0197	2219.24	84.6615	2219.24	75.9008	2219.24	84.7643	2219.24	76.3473	2219.24	77.1784	2219.24	72.9148	2219.24	72.0455	2219.24	74.6524	2219.24	69.7523	2219.24	71.3029	2219.24	58.6918	2219.24	73.1633	2219.24	58.8509	2219.24	70.6705	2219.24	60.788	2219.24	65.4804	2219.24	64.1611	2219.24	64.8943	2219.24	58.6209	2219.24	59.7544	2219.24	69.8523	2219.24	65.0834
2296.88	86.8227	2296.88	82.3792	2296.88	83.6198	2296.88	77.6302	2296.88	72.0259	2296.88	79.259	2296.88	78.3772	2296.88	74.3812	2296.88	62.6548	2296.88	72.8421	2296.88	78.5945	2296.88	77.9276	2296.88	83.4661	2296.88	78.8903	2296.88	85.5726	2296.88	77.3426	2296.88	83.8326	2296.88	75.1874	2296.88	77.8926	2296.88	74.7835	2296.88	72.6603	2296.88	72.9585	2296.88	66.396	2296.88	73.4808	2296.88	62.1891	2296.88	71.0614	2296.88	59.5958	2296.88	68.7974	2296.88	61.7574	2296.88	66.8401	2296.88	64.01	2296.88	60.1348	2296.88	56.2122	2296.88	55.1724	2296.88	69.2032	2296.88	68.0185
2378.91	86.6659	2378.91	82.4193	2378.91	82.3976	2378.91	78.6442	2378.91	68.8057	2378.91	80.4067	2378.91	78.2904	2378.91	72.1819	2378.91	61.7222	2378.91	75.8936	2378.91	81.0105	2378.91	80.6644	2378.91	83.9615	2378.91	80.382	2378.91	85.2338	2378.91	79.0139	2378.91	83.0673	2378.91	77.4023	2378.91	75.9839	2378.91	75.1221	2378.91	70.6484	2378.91	73.8708	2378.91	68.2004	2378.91	73.7422	2378.91	65.4462	2378.91	73.2236	2378.91	64.8819	2378.91	72.1383	2378.91	63.4821	2378.91	67.3685	2378.91	66.1778	2378.91	62.4411	2378.91	65.199	2378.91	51.0948	2378.91	69.8108	2378.91	65.8905
2462.4	86.9669	2462.4	82.479	2462.4	81.9892	2462.4	80.1313	2462.4	70.9175	2462.4	80.6689	2462.4	77.9514	2462.4	67.1913	2462.4	63.3962	2462.4	77.8106	2462.4	82.4487	2462.4	81.1705	2462.4	85.047	2462.4	80.8112	2462.4	85.3269	2462.4	78.4304	2462.4	83.3879	2462.4	75.7404	2462.4	76.8378	2462.4	73.9573	2462.4	71.0572	2462.4	74.2151	2462.4	66.9105	2462.4	73.2572	2462.4	67.8113	2462.4	73.8384	2462.4	68.8762	2462.4	71.2205	2462.4	63.1206	2462.4	68.9203	2462.4	65.6531	2462.4	65.3669	2462.4	64.9909	2462.4	50.9912	2462.4	69.3815	2462.4	68.3184
2548.83	86.6337	2548.83	82.5536	2548.83	81.3813	2548.83	80.8335	2548.83	68.7553	2548.83	80.8734	2548.83	76.6616	2548.83	62.2183	2548.83	71.5466	2548.83	78.5468	2548.83	83.504	2548.83	80.3399	2548.83	85.6396	2548.83	79.3481	2548.83	85.0769	2548.83	77.5594	2548.83	82.0971	2548.83	76.3371	2548.83	75.9571	2548.83	74.3789	2548.83	70.8197	2548.83	73.182	2548.83	62.9668	2548.83	71.7671	2548.83	67.7327	2548.83	71.2133	2548.83	67.2694	2548.83	71.6235	2548.83	59.4399	2548.83	67.2483	2548.83	60.0471	2548.83	62.0818	2548.83	64.5786	2548.83	49.8099	2548.83	68.0714	2548.83	66.6109
2639.65	86.3253	2639.65	82.5323	2639.65	79.65	2639.65	80.7992	2639.65	74.2901	2639.65	80.8728	2639.65	75.8857	2639.65	69.1199	2639.65	75.7774	2639.65	79.5732	2639.65	84.2057	2639.65	81.3717	2639.65	85.4241	2639.65	80.5558	2639.65	83.4894	2639.65	79.0591	2639.65	79.9228	2639.65	77.514	2639.65	73.4214	2639.65	75.0689	2639.65	67.7293	2639.65	72.529	2639.65	60.8877	2639.65	73.063	2639.65	71.5215	2639.65	73.066	2639.65	66.8827	2639.65	73.5263	2639.65	60.6893	2639.65	69.8894	2639.65	56.1138	2639.65	64.4495	2639.65	66.9951	2639.65	55.1197	2639.65	69.4506	2639.65	68.4296
2731.93	86.2638	2731.93	82.1166	2731.93	80.0849	2731.93	82.0714	2731.93	76.0094	2731.93	80.4195	2731.93	75.3335	2731.93	73.0728	2731.93	77.6541	2731.93	81.1904	2731.93	84.4452	2731.93	82.8572	2731.93	85.312	2731.93	81.4131	2731.93	82.9565	2731.93	78.3432	2731.93	79.9626	2731.93	75.6468	2731.93	74.2792	2731.93	74.1663	2731.93	69.391	2731.93	72.3394	2731.93	56.5513	2731.93	73.4122	2731.93	66.7734	2731.93	70.8897	2731.93	64.1265	2731.93	72.3473	2731.93	64.3291	2731.93	70.0192	2731.93	58.6823	2731.93	61.8472	2731.93	68.6514	2731.93	54.9163	2731.93	69.1035	2731.93	65.7029
2828.61	86.4424	2828.61	82.1554	2828.61	80.8225	2828.61	82.563	2828.61	76.3783	2828.61	81.1512	2828.61	76.2827	2828.61	73.0308	2828.61	79.248	2828.61	82.4824	2828.61	84.6745	2828.61	82.5269	2828.61	85.2995	2828.61	80.5898	2828.61	82.0122	2828.61	78.3536	2828.61	80.3986	2828.61	75.3821	2828.61	73.9921	2828.61	74.6357	2828.61	68.9882	2828.61	73.0591	2828.61	56.7301	2828.61	70.4853	2828.61	68.2689	2828.61	70.2703	2828.61	66.1269	2828.61	71.7063	2828.61	60.2614	2828.61	69.3638	2828.61	53.0091	2828.61	61.3392	2828.61	66.3622	2828.61	55.5181	2828.61	68.9055	2828.61	67.9661
2928.22	86.013	2928.22	81.9696	2928.22	79.5431	2928.22	82.9314	2928.22	79.043	2928.22	81.1472	2928.22	77.044	2928.22	77.2398	2928.22	81.6615	2928.22	82.9345	2928.22	84.1324	2928.22	82.6437	2928.22	83.7412	2928.22	79.5824	2928.22	79.7652	2928.22	77.6245	2928.22	80.3578	2928.22	76.8272	2928.22	74.8946	2928.22	74.2969	2928.22	70.7261	2928.22	72.2307	2928.22	54.243	2928.22	69.7197	2928.22	63.5869	2928.22	71.2018	2928.22	63.9618	2928.22	72.4335	2928.22	63.4576	2928.22	71.8418	2928.22	59.8638	2928.22	66.3303	2928.22	68.6674	2928.22	46.0696	2928.22	68.8396	2928.22	65.6529
3030.76	86.5427	3030.76	82.2153	3030.76	79.3556	3030.76	84.3545	3030.76	80.1757	3030.76	79.9852	3030.76	74.7612	3030.76	80.9729	3030.76	82.8059	3030.76	84.0732	3030.76	83.6619	3030.76	82.7191	3030.76	83.1168	3030.76	80.6028	3030.76	80.9026	3030.76	78.7836	3030.76	82.6924	3030.76	76.5791	3030.76	76.9645	3030.76	75.0859	3030.76	71.3802	3030.76	71.3125	3030.76	56.645	3030.76	72.3383	3030.76	67.5429	3030.76	70.0415	3030.76	66.258	3030.76	70.1191	3030.76	66.0907	3030.76	72.0204	3030.76	56.5805	3030.76	64.758	3030.76	67.8196	3030.76	55.2061	3030.76	68.9847	3030.76	67.3089
3137.7	87.4236	3137.7	82.5002	3137.7	79.9721	3137.7	85.3984	3137.7	82.2859	3137.7	80.7359	3137.7	79.021	3137.7	82.753	3137.7	82.9733	3137.7	84.1562	3137.7	84.4386	3137.7	82.8268	3137.7	82.5001	3137.7	80.11	3137.7	82.3396	3137.7	79.2101	3137.7	83.0713	3137.7	77.1245	3137.7	77.7855	3137.7	75.9094	3137.7	71.7198	3137.7	73.7933	3137.7	56.6436	3137.7	73.2376	3137.7	69.8367	3137.7	70.5799	3137.7	65.2628	3137.7	70.3333	3137.7	64.6076	3137.7	70.3535	3137.7	61.0198	3137.7	65.2803	3137.7	68.2132	3137.7	56.1656	3137.7	67.4328	3137.7	66.5711
3249.02	87.1036	3249.02	82.2722	3249.02	78.5983	3249.02	85.5657	3249.02	83.6862	3249.02	80.0897	3249.02	80.4839	3249.02	82.8792	3249.02	84.3812	3249.02	84.347	3249.02	83.4508	3249.02	83.1474	3249.02	81.1485	3249.02	82.1143	3249.02	82.3649	3249.02	79.5683	3249.02	82.9048	3249.02	77.0937	3249.02	76.2497	3249.02	75.2856	3249.02	72.2281	3249.02	74.2488	3249.02	65.256	3249.02	71.7398	3249.02	62.8839	3249.02	70.7983	3249.02	59.3315	3249.02	71.8772	3249.02	63.16	3249.02	71.5165	3249.02	62.9201	3249.02	69.8931	3249.02	65.9459	3249.02	57.7402	3249.02	70.66	3249.02	66.9336
3363.28	86.9534	3363.28	83.2017	3363.28	80.1154	3363.28	85.2412	3363.28	84.2627	3363.28	80.5691	3363.28	81.1786	3363.28	84.3868	3363.28	84.5797	3363.28	85.1872	3363.28	82.3439	3363.28	83.7537	3363.28	82.0126	3363.28	80.8442	3363.28	83.4182	3363.28	78.6472	3363.28	82.7062	3363.28	77.2083	3363.28	76.4508	3363.28	74.9067	3363.28	70.4938	3363.28	73.5778	3363.28	63.1893	3363.28	70.5782	3363.28	65.2602	3363.28	67.3246	3363.28	64.0818	3363.28	68.1301	3363.28	67.3952	3363.28	71.909	3363.28	61.2915	3363.28	65.5797	3363.28	66.7512	3363.28	49.3348	3363.28	69.5038	3363.28	66.1742
3481.93	86.9108	3481.93	84.1919	3481.93	81.5967	3481.93	85.5321	3481.93	85.8857	3481.93	81.0533	3481.93	83.1129	3481.93	84.9774	3481.93	84.9701	3481.93	85.4004	3481.93	80.1075	3481.93	82.1838	3481.93	82.1638	3481.93	81.1392	3481.93	83.1199	3481.93	79.2282	3481.93	83.0932	3481.93	78.3059	3481.93	76.669	3481.93	76.7824	3481.93	70.9238	3481.93	74.9475	3481.93	58.8064	3481.93	73.3809	3481.93	61.629	3481.93	71.1532	3481.93	62.5762	3481.93	69.9163	3481.93	64.2347	3481.93	71.9915	3481.93	66.1777	3481.93	68.7754	3481.93	68.5326	3481.93	62.9232	3481.93	70.8324	3481.93	66.12
3604.98	87.1863	3604.98	84.6425	3604.98	82.1465	3604.98	85.2847	3604.98	86.3601	3604.98	81.8197	3604.98	83.3482	3604.98	86.2743	3604.98	83.944	3604.98	84.9838	3604.98	79.4129	3604.98	82.8787	3604.98	82.3824	3604.98	81.3269	3604.98	83.1955	3604.98	78.7518	3604.98	81.9427	3604.98	76.9728	3604.98	75.2995	3604.98	74.4494	3604.98	69.9424	3604.98	73.5106	3604.98	63.6088	3604.98	71.818	3604.98	57.0341	3604.98	71.2113	3604.98	60.1955	3604.98	66.6152	3604.98	64.4811	3604.98	70.5662	3604.98	67.4116	3604.98	66.2323	3604.98	65.3225	3604.98	54.0571	3604.98	68.9154	3604.98	68.4123
3732.42	86.9601	3732.42	85.1111	3732.42	82.968	3732.42	85.4127	3732.42	86.9068	3732.42	83.1588	3732.42	83.9426	3732.42	86.7194	3732.42	83.3928	3732.42	84.6029	3732.42	79.7926	3732.42	83.2976	3732.42	82.3521	3732.42	81.3966	3732.42	82.9749	3732.42	79.9411	3732.42	81.8937	3732.42	77.7086	3732.42	75.8122	3732.42	75.6902	3732.42	67.7619	3732.42	73.9243	3732.42	62.1689	3732.42	72.3211	3732.42	66.8371	3732.42	72.2767	3732.42	62.9028	3732.42	68.9526	3732.42	67.8107	3732.42	69.8075	3732.42	64.2636	3732.42	68.7953	3732.42	66.1945	3732.42	60.9926	3732.42	68.9831	3732.42	63.5083
3864.26	87.6933	3864.26	86.0262	3864.26	83.4362	3864.26	85.7962	3864.26	86.4793	3864.26	85.0207	3864.26	86.255	3864.26	86.6847	3864.26	82.9015	3864.26	84.5748	3864.26	79.6651	3864.26	83.3192	3864.26	81.8801	3864.26	80.7301	3864.26	82.8787	3864.26	79.0089	3864.26	82.3714	3864.26	76.9066	3864.26	76.1928	3864.26	75.0678	3864.26	69.7055	3864.26	73.0217	3864.26	47.5278	3864.26	71.2829	3864.26	68.2104	3864.26	70.9066	3864.26	63.7761	3864.26	68.869	3864.26	66.6031	3864.26	68.8971	3864.26	64.4865	3864.26	68.4473	3864.26	62.4958	3864.26	61.2535	3864.26	68.7001	3864.26	58.0438
4000.49	87.8015	4000.49	85.8903	4000.49	85.1625	4000.49	85.88	4000.49	87.0167	4000.49	85.9633	4000.49	87.305	4000.49	86.4855	4000.49	83.5132	4000.49	84.7173	4000.49	81.2373	4000.49	83.3941	4000.49	81.6181	4000.49	81.4717	4000.49	81.9268	4000.49	79.1459	4000.49	82.3944	4000.49	76.6089	4000.49	75.0459	4000.49	75.7524	4000.49	67.3211	4000.49	73.546	4000.49	60.8664	4000.49	71.3095	4000.49	65.4474	4000.49	71.896	4000.49	63.9166	4000.49	70.1951	4000.49	61.7384	4000.49	70.5896	4000.49	69.0881	4000.49	71.3658	4000.49	63.3642	4000.49	61.8441	4000.49	68.621	4000.49	61.4635
4141.11	87.8131	4141.11	86.7806	4141.11	83.7563	4141.11	86.2356	4141.11	86.7511	4141.11	87.0639	4141.11	87.7706	4141.11	86.6265	4141.11	82.7355	4141.11	85.0534	4141.11	80.3037	4141.11	83.7503	4141.11	80.0963	4141.11	81.9216	4141.11	81.552	4141.11	79.7667	4141.11	81.9676	4141.11	77.0175	4141.11	76.7099	4141.11	74.5593	4141.11	70.2708	4141.11	74.2572	4141.11	57.0409	4141.11	70.9302	4141.11	64.1012	4141.11	71.2057	4141.11	62.9456	4141.11	69.4536	4141.11	64.5402	4141.11	69.487	4141.11	67.3979	4141.11	67.3863	4141.11	62.645	4141.11	55.9606	4141.11	67.5642	4141.11	62.6795
4287.6	88.3684	4287.6	87.0773	4287.6	85.3414	4287.6	86.2011	4287.6	87.0461	4287.6	87.3262	4287.6	88.6768	4287.6	86.425	4287.6	83.9116	4287.6	85.2706	4287.6	82.5541	4287.6	83.9433	4287.6	81.1067	4287.6	80.9889	4287.6	81.6655	4287.6	79.3239	4287.6	80.8871	4287.6	77.2744	4287.6	76.7895	4287.6	75.3541	4287.6	69.4827	4287.6	73.8322	4287.6	52.5458	4287.6	70.9166	4287.6	67.3517	4287.6	71.6147	4287.6	52.5268	4287.6	69.685	4287.6	64.8047	4287.6	71.8683	4287.6	68.4826	4287.6	69.3345	4287.6	60.8014	4287.6	66.8624	4287.6	70.7315	4287.6	64.0603
4438.48	88.4612	4438.48	87.0834	4438.48	84.3296	4438.48	87.3917	4438.48	87.1467	4438.48	87.2525	4438.48	88.7165	4438.48	86.6493	4438.48	83.2377	4438.48	85.566	4438.48	80.5309	4438.48	83.4209	4438.48	78.6795	4438.48	81.4935	4438.48	82.156	4438.48	79.7025	4438.48	81.0591	4438.48	76.9927	4438.48	75.064	4438.48	75.6524	4438.48	67.9302	4438.48	73.0536	4438.48	52.64	4438.48	72.7722	4438.48	64.1124	4438.48	70.224	4438.48	56.8864	4438.48	68.7204	4438.48	63.4746	4438.48	72.9733	4438.48	69.8728	4438.48	69.5199	4438.48	63.0477	4438.48	61.0765	4438.48	66.6752	4438.48	63.5182
4595.21	89.4939	4595.21	86.6148	4595.21	86.3558	4595.21	87.1408	4595.21	88.4756	4595.21	87.5115	4595.21	88.9259	4595.21	86.747	4595.21	86.1493	4595.21	85.851	4595.21	82.2693	4595.21	83.089	4595.21	81.2501	4595.21	81.5442	4595.21	81.496	4595.21	79.3213	4595.21	81.6885	4595.21	77.591	4595.21	77.5939	4595.21	74.2373	4595.21	66.1698	4595.21	72.7325	4595.21	52.0976	4595.21	71.2376	4595.21	64.229	4595.21	71.0397	4595.21	55.2066	4595.21	70.0087	4595.21	63.9783	4595.21	71.9021	4595.21	68.1492	4595.21	72.1859	4595.21	60.4014	4595.21	65.313	4595.21	67.8121	4595.21	51.2512
4756.35	88.5778	4756.35	87.8963	4756.35	84.1957	4756.35	86.5758	4756.35	87.8473	4756.35	87.4952	4756.35	87.554	4756.35	87.0006	4756.35	84.4072	4756.35	85.8712	4756.35	81.8154	4756.35	83.7971	4756.35	79.5089	4756.35	81.6343	4756.35	81.8624	4756.35	79.714	4756.35	81.1418	4756.35	76.8269	4756.35	74.9734	4756.35	74.7747	4756.35	62.5896	4756.35	72.5592	4756.35	47.7436	4756.35	72.4312	4756.35	61.376	4756.35	71.2756	4756.35	60.7791	4756.35	68.7636	4756.35	61.0275	4756.35	68.8522	4756.35	67.9861	4756.35	72.1293	4756.35	58.9767	4756.35	70.3683	4756.35	70.0962	4756.35	62.9333
4924.8	87.2273	4924.8	87.9777	4924.8	84.6481	4924.8	86.3821	4924.8	86.9004	4924.8	87.9878	4924.8	88.3716	4924.8	87.0701	4924.8	85.5566	4924.8	84.8991	4924.8	82.8886	4924.8	83.3133	4924.8	78.5056	4924.8	80.9406	4924.8	81.5943	4924.8	78.38	4924.8	82.3733	4924.8	76.0305	4924.8	75.4616	4924.8	73.068	4924.8	68.1939	4924.8	72.6882	4924.8	56.4181	4924.8	71.3701	4924.8	51.0296	4924.8	69.3498	4924.8	59.4869	4924.8	68.1609	4924.8	64.3628	4924.8	68.5941	4924.8	68.5533	4924.8	68.8908	4924.8	61.9517	4924.8	59.2809	4924.8	67.9956	4924.8	66.4173
5097.66	87.9653	5097.66	88.2805	5097.66	86.1546	5097.66	85.2967	5097.66	85.2483	5097.66	87.4109	5097.66	86.8893	5097.66	87.0808	5097.66	84.6776	5097.66	85.0826	5097.66	82.1885	5097.66	83.6292	5097.66	81.0568	5097.66	80.3209	5097.66	81.5355	5097.66	78.3022	5097.66	81.26	5097.66	76.0042	5097.66	75.8679	5097.66	72.4123	5097.66	63.5216	5097.66	73.1366	5097.66	50.924	5097.66	71.6534	5097.66	62.8683	5097.66	67.3741	5097.66	56.9043	5097.66	68.1692	5097.66	63.2051	5097.66	71.2272	5097.66	66.1691	5097.66	71.5198	5097.66	52.2676	5097.66	69.7653	5097.66	64.3037	5097.66	62.3064
5277.83	88.4744	5277.83	88.3641	5277.83	88.0001	5277.83	86.2433	5277.83	85.604	5277.83	87.1491	5277.83	86.8679	5277.83	86.6929	5277.83	85.0235	5277.83	85.3763	5277.83	80.6809	5277.83	82.8506	5277.83	80.6207	5277.83	80.3415	5277.83	80.156	5277.83	78.9908	5277.83	81.717	5277.83	76.8079	5277.83	74.9808	5277.83	75.3104	5277.83	66.5204	5277.83	72.4703	5277.83	60.429	5277.83	71.6913	5277.83	65.0452	5277.83	69.9492	5277.83	58.4295	5277.83	68.8647	5277.83	58.2183	5277.83	72.0889	5277.83	65.6772	5277.83	71.9988	5277.83	56.008	5277.83	70.4176	5277.83	62.1232	5277.83	61.7515
5463.87	88.8981	5463.87	85.9643	5463.87	88.8222	5463.87	86.9304	5463.87	86.7723	5463.87	88.0255	5463.87	86.2343	5463.87	86.3297	5463.87	86.5943	5463.87	86.1202	5463.87	82.4349	5463.87	82.7403	5463.87	80.3975	5463.87	82.1143	5463.87	78.2813	5463.87	80.5065	5463.87	80.7554	5463.87	78.1601	5463.87	75.51	5463.87	75.7823	5463.87	68.5025	5463.87	73.8823	5463.87	63.5615	5463.87	71.9243	5463.87	57.1791	5463.87	70.072	5463.87	56.7672	5463.87	69.9347	5463.87	61.3151	5463.87	70.8842	5463.87	65.8769	5463.87	73.8358	5463.87	58.2908	5463.87	66.6719	5463.87	65.4784	5463.87	69.23
5657.23	88.2139	5657.23	87.0306	5657.23	87.4332	5657.23	85.7134	5657.23	86.7839	5657.23	87.0211	5657.23	84.8095	5657.23	86.2856	5657.23	86.1658	5657.23	85.054	5657.23	83.1971	5657.23	83.6602	5657.23	80.221	5657.23	82.6326	5657.23	79.2663	5657.23	80.7315	5657.23	80.2834	5657.23	78.11	5657.23	76.1545	5657.23	75.5107	5657.23	69.2942	5657.23	74.1382	5657.23	64.3708	5657.23	70.9635	5657.23	56.2383	5657.23	68.7351	5657.23	59.2502	5657.23	69.6671	5657.23	65.0843	5657.23	71.5745	5657.23	65.2704	5657.23	71.3123	5657.23	57.3264	5657.23	73.3015	5657.23	67.0656	5657.23	65.8056
5856.45	87.1146	5856.45	88.0049	5856.45	86.5784	5856.45	86.3144	5856.45	86.0497	5856.45	85.6461	5856.45	85.0671	5856.45	85.821	5856.45	84.9797	5856.45	85.1002	5856.45	82.1464	5856.45	84.9955	5856.45	79.9109	5856.45	82.8043	5856.45	79.667	5856.45	80.1564	5856.45	79.3816	5856.45	78.2279	5856.45	75.626	5856.45	75.208	5856.45	66.0787	5856.45	73.234	5856.45	60.7143	5856.45	70.6196	5856.45	59.356	5856.45	68.4411	5856.45	56.504	5856.45	70.6496	5856.45	65.381	5856.45	69.9997	5856.45	67.7562	5856.45	73.2491	5856.45	58.7052	5856.45	69.2972	5856.45	58.5715	5856.45	62.7534
6062.99	87.9986	6062.99	87.8348	6062.99	87.1068	6062.99	86.9841	6062.99	85.8139	6062.99	85.3684	6062.99	84.7387	6062.99	85.3596	6062.99	85.7625	6062.99	85.6808	6062.99	83.581	6062.99	85.2965	6062.99	79.2222	6062.99	82.9065	6062.99	78.9826	6062.99	80.2484	6062.99	80.0142	6062.99	77.8563	6062.99	74.8849	6062.99	75.8211	6062.99	64.4457	6062.99	73.1642	6062.99	61.5987	6062.99	70.5202	6062.99	62.7905	6062.99	71.3277	6062.99	60.6954	6062.99	66.3767	6062.99	59.8664	6062.99	66.1857	6062.99	62.7923	6062.99	70.8523	6062.99	59.2568	6062.99	66.6027	6062.99	61.9268	6062.99	67.2536
6276.86	89.5023	6276.86	88.6143	6276.86	87.07	6276.86	86.9164	6276.86	87.236	6276.86	85.6288	6276.86	83.9532	6276.86	85.8765	6276.86	85.6593	6276.86	86.0401	6276.86	83.4007	6276.86	84.624	6276.86	80.9389	6276.86	82.4187	6276.86	75.5886	6276.86	79.9379	6276.86	79.535	6276.86	77.5318	6276.86	76.1157	6276.86	74.4911	6276.86	63.3786	6276.86	72.3839	6276.86	50.2929	6276.86	69.2844	6276.86	63.2374	6276.86	69.0651	6276.86	62.9564	6276.86	68.3702	6276.86	63.6548	6276.86	65.5025	6276.86	63.9124	6276.86	70.4141	6276.86	62.7367	6276.86	69.1908	6276.86	63.9583	6276.86	63.7893
6498.05	89.0537	6498.05	89.3773	6498.05	86.9538	6498.05	86.4477	6498.05	87.1774	6498.05	85.3005	6498.05	84.8106	6498.05	86.2512	6498.05	85.0102	6498.05	86.0566	6498.05	82.2343	6498.05	84.7805	6498.05	82.2649	6498.05	82.7654	6498.05	74.5511	6498.05	80.1739	6498.05	79.0237	6498.05	77.3005	6498.05	76.4593	6498.05	74.2436	6498.05	57.3135	6498.05	71.5287	6498.05	55.0387	6498.05	70.817	6498.05	57.8493	6498.05	68.6143	6498.05	56.9011	6498.05	68.3948	6498.05	62.1139	6498.05	64.439	6498.05	60.3646	6498.05	71.5633	6498.05	59.5251	6498.05	70.6811	6498.05	62.067	6498.05	58.4479
6726.56	88.5108	6726.56	89.4312	6726.56	87.2046	6726.56	86.0274	6726.56	86.9097	6726.56	85.5818	6726.56	84.9789	6726.56	85.5691	6726.56	84.6364	6726.56	85.8177	6726.56	82.6238	6726.56	84.569	6726.56	82.1988	6726.56	82.6481	6726.56	76.8918	6726.56	79.1196	6726.56	78.4055	6726.56	76.3639	6726.56	75.4943	6726.56	75.1248	6726.56	55.715	6726.56	73.2943	6726.56	60.6638	6726.56	70.9467	6726.56	51.2756	6726.56	68.9365	6726.56	52.6119	6726.56	67.9543	6726.56	58.803	6726.56	62.0608	6726.56	62.7889	6726.56	67.6989	6726.56	60.8508	6726.56	67.4847	6726.56	52.917	6726.56	63.3921
6963.87	88.5359	6963.87	89.1322	6963.87	87.0962	6963.87	87.0612	6963.87	87.3728	6963.87	85.612	6963.87	85.2516	6963.87	85.3079	6963.87	84.769	6963.87	85.9469	6963.87	83.836	6963.87	84.531	6963.87	81.5478	6963.87	82.2984	6963.87	77.0025	6963.87	79.5913	6963.87	79.0188	6963.87	76.9572	6963.87	75.7872	6963.87	73.8218	6963.87	58.7504	6963.87	70.5937	6963.87	63.1488	6963.87	68.8219	6963.87	58.1811	6963.87	68.3672	6963.87	59.8337	6963.87	66.9395	6963.87	62.2768	6963.87	62.1349	6963.87	59.0817	6963.87	68.8756	6963.87	62.2482	6963.87	68.7239	6963.87	60.5965	6963.87	67.4661
7209.96	88.6627	7209.96	88.695	7209.96	87.4632	7209.96	87.3427	7209.96	87.4606	7209.96	85.6424	7209.96	85.3875	7209.96	86.3183	7209.96	84.2304	7209.96	85.8128	7209.96	84.0857	7209.96	83.5792	7209.96	80.1693	7209.96	81.2279	7209.96	77.0823	7209.96	77.8926	7209.96	79.2953	7209.96	75.2916	7209.96	75.2731	7209.96	72.0007	7209.96	60.3681	7209.96	70.0719	7209.96	39.5012	7209.96	68.7874	7209.96	53.0037	7209.96	66.5115	7209.96	58.1033	7209.96	63.4419	7209.96	62.8962	7209.96	61.8641	7209.96	58.2708	7209.96	64.8803	7209.96	59.1842	7209.96	68.3923	7209.96	66.0949	7209.96	54.8706
7464.84	88.6106	7464.84	89.0355	7464.84	87.7645	7464.84	86.8867	7464.84	87.6072	7464.84	86.528	7464.84	85.4685	7464.84	86.2727	7464.84	84.3721	7464.84	85.6996	7464.84	83.264	7464.84	83.4265	7464.84	80.0796	7464.84	81.0872	7464.84	77.085	7464.84	78.148	7464.84	79.2997	7464.84	76.0489	7464.84	75.0269	7464.84	74.3858	7464.84	64.2674	7464.84	71.8816	7464.84	50.8601	7464.84	68.3028	7464.84	54.3698	7464.84	66.1105	7464.84	60.0613	7464.84	66.3137	7464.84	61.2944	7464.84	59.6374	7464.84	57.5025	7464.84	66.5828	7464.84	59.8842	7464.84	63.5001	7464.84	60.5098	7464.84	60.9728
7727.05	88.7542	7727.05	88.5357	7727.05	87.7319	7727.05	87.564	7727.05	86.74	7727.05	87.1869	7727.05	86.442	7727.05	85.8664	7727.05	84.157	7727.05	85.4307	7727.05	83.5483	7727.05	82.932	7727.05	80.3858	7727.05	81.0602	7727.05	77.5808	7727.05	78.1594	7727.05	78.7598	7727.05	75.2039	7727.05	74.5907	7727.05	71.2361	7727.05	59.7178	7727.05	69.9337	7727.05	47.1267	7727.05	68.0737	7727.05	57.4901	7727.05	65.1366	7727.05	52.612	7727.05	60.2834	7727.05	58.8669	7727.05	57.441	7727.05	54.3617	7727.05	62.8242	7727.05	62.3243	7727.05	68.6191	7727.05	57.0424	7727.05	64.3907
7999.51	88.918	7999.51	87.4838	7999.51	87.6796	7999.51	88.1336	7999.51	85.9224	7999.51	87.2812	7999.51	86.5842	7999.51	86.2957	7999.51	83.8315	7999.51	84.1617	7999.51	84.5746	7999.51	82.965	7999.51	80.8153	7999.51	79.8978	7999.51	78.7357	7999.51	76.4882	7999.51	77.7441	7999.51	72.1155	7999.51	75.7962	7999.51	70.8999	7999.51	63.0888	7999.51	69.0231	7999.51	56.1147	7999.51	66.4026	7999.51	53.9366	7999.51	64.5583	7999.51	61.3675	7999.51	61.5812	7999.51	57.8528	7999.51	56.0385	7999.51	57.7202	7999.51	61.2285	7999.51	60.7139	7999.51	57.3716	7999.51	61.5756	7999.51	59.5464
8282.23	88.6148	8282.23	87.3931	8282.23	87.4707	8282.23	88.3597	8282.23	86.1865	8282.23	87.024	8282.23	86.6821	8282.23	86.8249	8282.23	83.4323	8282.23	84.3196	8282.23	85.2934	8282.23	82.1992	8282.23	81.1605	8282.23	79.8151	8282.23	77.6905	8282.23	78.0352	8282.23	75.4691	8282.23	75.4878	8282.23	72.3711	8282.23	72.3744	8282.23	62.5413	8282.23	69.5544	8282.23	58.7218	8282.23	66.8496	8282.23	42.4444	8282.23	65.4557	8282.23	51.9697	8282.23	63.1435	8282.23	51.6989	8282.23	63.043	8282.23	56.2046	8282.23	60.8857	8282.23	60.0226	8282.23	64.1208	8282.23	54.4404	8282.23	62.4063
8573.73	88.53	8573.73	87.3531	8573.73	87.3815	8573.73	88.4875	8573.73	86.6431	8573.73	87.438	8573.73	86.9565	8573.73	85.6704	8573.73	84.1678	8573.73	84.4196	8573.73	84.0844	8573.73	81.9929	8573.73	80.2382	8573.73	80.9125	8573.73	78.1696	8573.73	77.5339	8573.73	71.4982	8573.73	73.7208	8573.73	69.5985	8573.73	70.5353	8573.73	61.7779	8573.73	68.4499	8573.73	58.5651	8573.73	66.1721	8573.73	54.9558	8573.73	62.5579	8573.73	55.3571	8573.73	62.2641	8573.73	51.7815	8573.73	62.0375	8573.73	59.0057	8573.73	49.5958	8573.73	59.8522	8573.73	57.9814	8573.73	58.6759	8573.73	58.9956
8876.95	88.7602	8876.95	87.4655	8876.95	87.6114	8876.95	88.558	8876.95	85.9764	8876.95	87.3268	8876.95	87.0033	8876.95	85.1444	8876.95	84.4237	8876.95	83.9503	8876.95	82.5206	8876.95	82.7846	8876.95	77.6528	8876.95	80.0284	8876.95	77.6688	8876.95	76.357	8876.95	69.9402	8876.95	73.4913	8876.95	65.6529	8876.95	70.7569	8876.95	60.9353	8876.95	68.0521	8876.95	36.7529	8876.95	64.7108	8876.95	59.6272	8876.95	64.6004	8876.95	53.2827	8876.95	64.491	8876.95	56.5281	8876.95	59.5343	8876.95	57.9397	8876.95	52.2261	8876.95	48.3403	8876.95	61.7839	8876.95	53.6671	8876.95	62.3672
9188.96	88.9019	9188.96	88.1772	9188.96	88.2458	9188.96	88.9809	9188.96	86.9604	9188.96	86.835	9188.96	86.4236	9188.96	84.8815	9188.96	83.9397	9188.96	83.9219	9188.96	82.6284	9188.96	82.749	9188.96	78.1084	9188.96	79.6229	9188.96	76.0235	9188.96	76.4268	9188.96	72.8587	9188.96	71.4493	9188.96	66.2086	9188.96	68.3872	9188.96	60.7954	9188.96	66.7716	9188.96	47.6772	9188.96	63.8783	9188.96	55.3492	9188.96	63.5524	9188.96	56.5993	9188.96	63.7194	9188.96	50.0882	9188.96	62.1714	9188.96	59.0444	9188.96	59.573	9188.96	49.5679	9188.96	48.6397	9188.96	54.8826	9188.96	55.3903
9514.16	88.8042	9514.16	88.8923	9514.16	88.7936	9514.16	89.0164	9514.16	87.7569	9514.16	87.1208	9514.16	85.8398	9514.16	84.808	9514.16	84.1327	9514.16	84.1314	9514.16	83.1456	9514.16	81.7705	9514.16	78.7695	9514.16	78.3245	9514.16	75.1161	9514.16	74.6887	9514.16	72.5509	9514.16	71.1815	9514.16	66.4342	9514.16	66.9216	9514.16	57.5356	9514.16	65.2531	9514.16	51.8386	9514.16	62.6515	9514.16	37.7388	9514.16	62.5953	9514.16	51.5258	9514.16	61.5773	9514.16	54.6353	9514.16	62.4273	9514.16	59.829	9514.16	55.4215	9514.16	53.0039	9514.16	59.8448	9514.16	52.2998	9514.16	57.6973
9849.61	89.4055	9849.61	89.4128	9849.61	89.0232	9849.61	89.0837	9849.61	87.6658	9849.61	87.2712	9849.61	85.9626	9849.61	84.6074	9849.61	83.6676	9849.61	83.8877	9849.61	82.5746	9849.61	81.4574	9849.61	77.5303	9849.61	78.4349	9849.61	74.0396	9849.61	75.1926	9849.61	72.0065	9849.61	71.2963	9849.61	65.5524	9849.61	68.7879	9849.61	50.3595	9849.61	66.2152	9849.61	45.7442	9849.61	63.6306	9849.61	44.9188	9849.61	61.8905	9849.61	44.6592	9849.61	62.3452	9849.61	54.7818	9849.61	63.3492	9849.61	60.2063	9849.61	61.3956	9849.61	52.5878	9849.61	60.9009	9849.61	57.1425	9849.61	56.0517
10196.8	89.9207	10196.8	89.7032	10196.8	89.4002	10196.8	89.6139	10196.8	88.0173	10196.8	87.3455	10196.8	86.1846	10196.8	84.8857	10196.8	83.3705	10196.8	83.5599	10196.8	81.7701	10196.8	80.7529	10196.8	75.194	10196.8	77.8999	10196.8	73.9188	10196.8	74.0651	10196.8	70.2049	10196.8	71.3378	10196.8	63.6706	10196.8	67.9454	10196.8	54.9516	10196.8	64.9288	10196.8	43.0123	10196.8	61.522	10196.8	45.2301	10196.8	59.9901	10196.8	54.7281	10196.8	58.8986	10196.8	53.1373	10196.8	60.7026	10196.8	55.4514	10196.8	61.4614	10196.8	53.785	10196.8	55.8689	10196.8	52.9435	10196.8	54.8879
10555.7	90.3896	10555.7	89.836	10555.7	89.5761	10555.7	89.6747	10555.7	88.2356	10555.7	87.2069	10555.7	86.3311	10555.7	84.9097	10555.7	83.0315	10555.7	83.1357	10555.7	81.3836	10555.7	80.3806	10555.7	75.7414	10555.7	76.7594	10555.7	74.4506	10555.7	72.3165	10555.7	67.9016	10555.7	69.1723	10555.7	61.7222	10555.7	66.4122	10555.7	53.4054	10555.7	63.6163	10555.7	47.9065	10555.7	61.7885	10555.7	49.6305	10555.7	60.5696	10555.7	50.7997	10555.7	59.5275	10555.7	56.1771	10555.7	58.9128	10555.7	48.4487	10555.7	61.8556	10555.7	50.6387	10555.7	53.9108	10555.7	57.3027	10555.7	55.4562
10927.7	90.2441	10927.7	90.297	10927.7	89.6272	10927.7	89.571	10927.7	88.4374	10927.7	87.0412	10927.7	86.4792	10927.7	84.295	10927.7	82.3934	10927.7	82.2681	10927.7	81.2833	10927.7	79.0952	10927.7	75.9758	10927.7	74.5274	10927.7	73.8187	10927.7	71.1871	10927.7	69.4259	10927.7	68.7703	10927.7	62.9425	10927.7	64.2514	10927.7	46.4568	10927.7	63.088	10927.7	42.9658	10927.7	58.8692	10927.7	48.0617	10927.7	59.3595	10927.7	46.1027	10927.7	57.679	10927.7	54.7704	10927.7	57.6419	10927.7	49.1968	10927.7	59.155	10927.7	53.2438	10927.7	56.4185	10927.7	58.4943	10927.7	56.1613
11313	90.5443	11313	90.1763	11313	89.6835	11313	89.582	11313	88.614	11313	86.9144	11313	86.0302	11313	84.1756	11313	82.0646	11313	81.4307	11313	80.8401	11313	77.4789	11313	75.9708	11313	73.4243	11313	72.9018	11313	71.2385	11313	69.2004	11313	68.25	11313	61.7396	11313	65.8313	11313	57.9252	11313	61.9888	11313	49.1281	11313	59.9131	11313	39.7741	11313	61.7624	11313	49.9683	11313	58.3594	11313	55.2551	11313	58.216	11313	49.4848	11313	58.1571	11313	52.4567	11313	56.8979	11313	51.2681	11313	56.6617
11712.9	90.2249	11712.9	90.0913	11712.9	89.606	11712.9	89.0602	11712.9	88.8061	11712.9	86.3859	11712.9	85.7747	11712.9	83.3953	11712.9	82.7647	11712.9	79.9021	11712.9	79.7992	11712.9	76.4159	11712.9	76.2742	11712.9	74.9026	11712.9	72.0839	11712.9	71.539	11712.9	65.2532	11712.9	66.9565	11712.9	55.0584	11712.9	64.8939	11712.9	55.7035	11712.9	61.6975	11712.9	52.2875	11712.9	60.0369	11712.9	39.7947	11712.9	59.3471	11712.9	54.2079	11712.9	58.1618	11712.9	53.57	11712.9	56.9377	11712.9	34.1818	11712.9	56.386	11712.9	54.2567	11712.9	52.8993	11712.9	54.3421	11712.9	54.4304
12126	90.0297	12126	90.1677	12126	89.3581	12126	88.6037	12126	88.3644	12126	85.8797	12126	85.3858	12126	82.6553	12126	81.8904	12126	78.7645	12126	78.6823	12126	75.7956	12126	77.0041	12126	73.1156	12126	72.1038	12126	69.9126	12126	68.7839	12126	67.0734	12126	59.9295	12126	62.2566	12126	57.4319	12126	59.9308	12126	48.3056	12126	56.8096	12126	33.7994	12126	56.903	12126	49.5844	12126	53.9854	12126	56.1525	12126	54.1711	12126	44.9339	12126	57.956	12126	52.4926	12126	44.5203	12126	51.0331	12126	54.5418
12553.7	89.8855	12553.7	89.782	12553.7	89.5	12553.7	88.3581	12553.7	88.1414	12553.7	85.8898	12553.7	84.9956	12553.7	81.3538	12553.7	82.4894	12553.7	78.0865	12553.7	78.3717	12553.7	76.8246	12553.7	77.2674	12553.7	74.0916	12553.7	72.6111	12553.7	70.1731	12553.7	68.5134	12553.7	67.1836	12553.7	60.5397	12553.7	65.2773	12553.7	54.7865	12553.7	60.9213	12553.7	48.7536	12553.7	55.9033	12553.7	50.7603	12553.7	56.237	12553.7	48.1838	12553.7	55.8665	12553.7	53.9859	12553.7	54.178	12553.7	43.2251	12553.7	56.7471	12553.7	53.8347	12553.7	46.7412	12553.7	51.8171	12553.7	51.864
12996.1	89.8305	12996.1	89.5944	12996.1	89.2701	12996.1	87.94	12996.1	87.8327	12996.1	85.7943	12996.1	84.9942	12996.1	80.1551	12996.1	82.2257	12996.1	78.7785	12996.1	78.8329	12996.1	77.7146	12996.1	78.2547	12996.1	74.4202	12996.1	70.9526	12996.1	72.3214	12996.1	68.719	12996.1	70.031	12996.1	58.7612	12996.1	66.1433	12996.1	57.7909	12996.1	63.2569	12996.1	51.8446	12996.1	60.3675	12996.1	50.787	12996.1	59.1285	12996.1	50.0532	12996.1	57.4053	12996.1	40.0739	12996.1	53.0091	12996.1	45.7185	12996.1	56.908	12996.1	50.9138	12996.1	47.2961	12996.1	52.9992	12996.1	48.5111
13454.6	89.812	13454.6	89.4296	13454.6	89.1404	13454.6	87.3774	13454.6	87.739	13454.6	85.0294	13454.6	84.5471	13454.6	79.9924	13454.6	82.1852	13454.6	79.0348	13454.6	79.8963	13454.6	77.0634	13454.6	78.5234	13454.6	74.832	13454.6	69.7624	13454.6	71.9338	13454.6	69.393	13454.6	68.7385	13454.6	56.085	13454.6	66.2737	13454.6	53.5733	13454.6	62.125	13454.6	53.0553	13454.6	59.0956	13454.6	53.0162	13454.6	58.2035	13454.6	51.005	13454.6	57.2318	13454.6	50.2309	13454.6	52.0081	13454.6	42.4901	13454.6	57.6648	13454.6	48.4916	13454.6	50.301	13454.6	48.7354	13454.6	53.2786
13929.2	89.8023	13929.2	89.2055	13929.2	88.5973	13929.2	87.4525	13929.2	87.6155	13929.2	84.6745	13929.2	84.9747	13929.2	80.2815	13929.2	81.0468	13929.2	78.524	13929.2	80.5692	13929.2	77.7025	13929.2	78.8861	13929.2	76.7142	13929.2	73.8506	13929.2	74.4702	13929.2	71.0985	13929.2	70.8323	13929.2	58.0596	13929.2	67.4982	13929.2	54.5805	13929.2	64.2794	13929.2	53.0275	13929.2	60.2157	13929.2	50.555	13929.2	61.5089	13929.2	48.7793	13929.2	57.808	13929.2	40.034	13929.2	56.3129	13929.2	47.135	13929.2	59.5017	13929.2	45.5294	13929.2	56.6614	13929.2	50.9293	13929.2	50.5772
14419.9	89.8141	14419.9	88.8261	14419.9	88.5767	14419.9	87.1975	14419.9	87.8386	14419.9	84.5162	14419.9	84.484	14419.9	81.2647	14419.9	79.0529	14419.9	79.2824	14419.9	79.4922	14419.9	78.0572	14419.9	78.7097	14419.9	77.5035	14419.9	72.7509	14419.9	74.652	14419.9	69.8812	14419.9	71.3226	14419.9	53.723	14419.9	67.4838	14419.9	57.2364	14419.9	63.9626	14419.9	49.3297	14419.9	61.0496	14419.9	53.3503	14419.9	60.69	14419.9	48.9666	14419.9	57.6975	14419.9	48.9072	14419.9	56.195	14419.9	46.2098	14419.9	60.4493	14419.9	41.0102	14419.9	52.2293	14419.9	50.8503	14419.9	51.6313
14928.2	89.3935	14928.2	88.4746	14928.2	88.574	14928.2	86.5927	14928.2	87.5439	14928.2	83.7549	14928.2	84.1053	14928.2	80.7259	14928.2	78.3491	14928.2	77.9193	14928.2	79.4812	14928.2	77.6186	14928.2	79.0239	14928.2	76.5843	14928.2	72.8019	14928.2	73.1904	14928.2	70.215	14928.2	68.9994	14928.2	58.4282	14928.2	65.3711	14928.2	55.3121	14928.2	62.179	14928.2	49.658	14928.2	60.8778	14928.2	51.5189	14928.2	55.055	14928.2	49.2836	14928.2	57.9669	14928.2	47.7759	14928.2	54.2727	14928.2	45.3487	14928.2	58.0373	14928.2	47.7313	14928.2	47.7167	14928.2	51.4045	14928.2	52.6457
15455.6	89.1962	15455.6	87.9357	15455.6	87.9013	15455.6	86.6172	15455.6	86.8697	15455.6	82.8618	15455.6	84.1741	15455.6	80.6567	15455.6	80.3988	15455.6	77.1735	15455.6	78.4716	15455.6	78.1341	15455.6	77.731	15455.6	76.3912	15455.6	72.1858	15455.6	71.8069	15455.6	68.2757	15455.6	67.76	15455.6	55.7901	15455.6	63.479	15455.6	54.7978	15455.6	60.4997	15455.6	50.634	15455.6	59.7985	15455.6	47.6437	15455.6	49.8546	15455.6	51.8004	15455.6	57.6116	15455.6	43.7163	15455.6	50.7098	15455.6	42.2781	15455.6	55.6084	15455.6	35.4733	15455.6	48.5515	15455.6	47.5936	15455.6	52.6368
16000.5	88.4774	16000.5	87.3387	16000.5	87.5408	16000.5	85.7479	16000.5	86.2947	16000.5	83.3191	16000.5	83.4858	16000.5	79.7825	16000.5	81.3073	16000.5	77.5724	16000.5	78.135	16000.5	76.9466	16000.5	75.3496	16000.5	73.1223	16000.5	74.1192	16000.5	69.1009	16000.5	67.7573	16000.5	65.6864	16000.5	54.2303	16000.5	62.766	16000.5	54.084	16000.5	59.3493	16000.5	54.0507	16000.5	57.817	16000.5	39.4078	16000.5	49.8186	16000.5	47.846	16000.5	56.4196	16000.5	47.2515	16000.5	46.3255	16000.5	36.5541	16000.5	50.6505	16000.5	47.4284	16000.5	49.7115	16000.5	50.3281	16000.5	52.6913
16564.5	86.7982	16564.5	85.9843	16564.5	86.2398	16564.5	84.166	16564.5	84.6451	16564.5	82.744	16564.5	82.7838	16564.5	79.217	16564.5	80.5077	16564.5	78.6294	16564.5	77.0816	16564.5	77.3804	16564.5	75.0746	16564.5	74.5183	16564.5	74.3705	16564.5	71.8571	16564.5	68.7119	16564.5	68.355	16564.5	55.5612	16564.5	64.6699	16564.5	36.367	16564.5	60.8564	16564.5	51.6851	16564.5	59.1863	16564.5	41.4385	16564.5	54.0613	16564.5	40.7236	16564.5	57.1901	16564.5	48.3273	16564.5	51.5523	16564.5	47.579	16564.5	53.4396	16564.5	37.3633	16564.5	48.7862	16564.5	47.526	16564.5	53.7279
17148.9	85.6632	17148.9	84.4399	17148.9	85.3423	17148.9	83.2582	17148.9	83.8032	17148.9	82.4677	17148.9	82.8091	17148.9	80.3728	17148.9	80.5166	17148.9	79.957	17148.9	77.8189	17148.9	77.3469	17148.9	76.3788	17148.9	73.8126	17148.9	75.1735	17148.9	69.9333	17148.9	68.1861	17148.9	66.1875	17148.9	52.3819	17148.9	62.3603	17148.9	48.5801	17148.9	58.9873	17148.9	46.807	17148.9	58.3853	17148.9	38.7202	17148.9	48.2108	17148.9	50.6784	17148.9	53.3692	17148.9	45.4327	17148.9	50.6646	17148.9	48.8339	17148.9	52.5758	17148.9	25.7157	17148.9	41.2408	17148.9	48.7799	17148.9	51.4331
17752.4	86.2727	17752.4	85.4864	17752.4	85.5265	17752.4	84.2731	17752.4	84.5162	17752.4	82.4961	17752.4	83.1955	17752.4	79.5528	17752.4	80.4948	17752.4	77.1036	17752.4	79.7003	17752.4	69.4125	17752.4	76.8829	17752.4	67.0325	17752.4	74.022	17752.4	64.8916	17752.4	65.5138	17752.4	61.6152	17752.4	53.099	17752.4	58.4832	17752.4	47.2059	17752.4	54.7994	17752.4	50.7317	17752.4	54.164	17752.4	47.7785	17752.4	47.2884	17752.4	50.2297	17752.4	48.5551	17752.4	37.8565	17752.4	45.226	17752.4	44.9123	17752.4	48.4089	17752.4	39.7098	17752.4	37.5088	17752.4	53.6149	17752.4	47.8493
18379.4	86.284	18379.4	86.0804	18379.4	85.9951	18379.4	84.6978	18379.4	84.7428	18379.4	81.4146	18379.4	83.3229	18379.4	77.1861	18379.4	79.7363	18379.4	68.8736	18379.4	77.7169	18379.4	69.6641	18379.4	72.0949	18379.4	69.8602	18379.4	69.1871	18379.4	66.5363	18379.4	57.9745	18379.4	62.7017	18379.4	46.9016	18379.4	58.9727	18379.4	42.0038	18379.4	55.184	18379.4	48.2634	18379.4	52.662	18379.4	38.5901	18379.4	52.5663	18379.4	39.5074	18379.4	51.0323	18379.4	44.4877	18379.4	48.6698	18379.4	38.648	18379.4	46.9048	18379.4	42.6801	18379.4	39.3243	18379.4	48.8251	18379.4	38.3767
19026.9	86.3844	19026.9	86.3038	19026.9	86.0676	19026.9	85.107	19026.9	84.6544	19026.9	81.2571	19026.9	82.4227	19026.9	76.5182	19026.9	76.9022	19026.9	68.9354	19026.9	74.2785	19026.9	71.7867	19026.9	72.0949	19026.9	70.6873	19026.9	70.373	19026.9	67.8977	19026.9	60.8237	19026.9	64.3138	19026.9	47.0155	19026.9	60.4656	19026.9	44.9043	19026.9	56.8727	19026.9	37.0757	19026.9	53.7455	19026.9	42.1205	19026.9	51.2964	19026.9	38.2675	19026.9	50.4319	19026.9	40.1076	19026.9	48.5794	19026.9	40.0295	19026.9	50.4348	19026.9	41.9125	19026.9	45.0079	19026.9	49.1417	19026.9	44.379
19697.8	86.771	19697.8	86.1948	19697.8	86.1509	19697.8	84.7384	19697.8	84.616	19697.8	80.3626	19697.8	82.3404	19697.8	75.3278	19697.8	77.8363	19697.8	70.4224	19697.8	75.2218	19697.8	70.9469	19697.8	72.8221	19697.8	71.6254	19697.8	71.4381	19697.8	69.7872	19697.8	62.8227	19697.8	65.6273	19697.8	48.0122	19697.8	61.7125	19697.8	45.1841	19697.8	57.5515	19697.8	46.4823	19697.8	53.8311	19697.8	40.5052	19697.8	48.6996	19697.8	41.1762	19697.8	46.6029	19697.8	29.9651	19697.8	49.9466	19697.8	44.1936	19697.8	49.6798	19697.8	33.8615	19697.8	39.9874	19697.8	47.1223	19697.8	48.157
19999.5	86.6695	19999.5	86.1093	19999.5	85.5044	19999.5	84.0633	19999.5	84.8437	19999.5	80.5998	19999.5	81.4013	19999.5	74.2501	19999.5	78.6416	19999.5	69.3619	19999.5	75.95	19999.5	68.7003	19999.5	72.4793	19999.5	72.2835	19999.5	73.0612	19999.5	70.5102	19999.5	63.5215	19999.5	66.2324	19999.5	56.8755	19999.5	61.8327	19999.5	50.3575	19999.5	58.0755	19999.5	42.307	19999.5	49.3446	19999.5	46.8557	19999.5	50.2439	19999.5	54.8997	19999.5	48.7507	19999.5	34.2829	19999.5	51.3568	19999.5	44.9058	19999.5	48.6421	19999.5	41.9491	19999.5	43.9204	19999.5	49.4742	19999.5	43.6298
