"SPL Horizontal"
"On-Axis"		"10°"		"-10°"		"20°"		"-20°"		"30°"		"-30°"		"40°"		"-40°"		"50°"		"-50°"		"60°"		"-60°"		"70°"		"-70°"		"80°"		"-80°"		"90°"		"-90°"		"100°"		"-100°"		"110°"		"-110°"		"120°"		"-120°"		"130°"		"-130°"		"140°"		"-140°"		"150°"		"-150°"		"160°"		"-160°"		"170°"		"-170°"		"180°"
"Frequency / Hz"	"Sound Pressure Level / dB (re 20 µPa/V)  [2.83V at 1m]"	"Frequency / Hz"	"Sound Pressure Level / dB (re 20 µPa/V)  [2.83V at 1m]"	"Frequency / Hz"	"Sound Pressure Level / dB (re 20 µPa/V)  [2.83V at 1m]"	"Frequency / Hz"	"Sound Pressure Level / dB (re 20 µPa/V)  [2.83V at 1m]"	"Frequency / Hz"	"Sound Pressure Level / dB (re 20 µPa/V)  [2.83V at 1m]"	"Frequency / Hz"	"Sound Pressure Level / dB (re 20 µPa/V)  [2.83V at 1m]"	"Frequency / Hz"	"Sound Pressure Level / dB (re 20 µPa/V)  [2.83V at 1m]"	"Frequency / Hz"	"Sound Pressure Level / dB (re 20 µPa/V)  [2.83V at 1m]"	"Frequency / Hz"	"Sound Pressure Level / dB (re 20 µPa/V)  [2.83V at 1m]"	"Frequency / Hz"	"Sound Pressure Level / dB (re 20 µPa/V)  [2.83V at 1m]"	"Frequency / Hz"	"Sound Pressure Level / dB (re 20 µPa/V)  [2.83V at 1m]"	"Frequency / Hz"	"Sound Pressure Level / dB (re 20 µPa/V)  [2.83V at 1m]"	"Frequency / Hz"	"Sound Pressure Level / dB (re 20 µPa/V)  [2.83V at 1m]"	"Frequency / Hz"	"Sound Pressure Level / dB (re 20 µPa/V)  [2.83V at 1m]"	"Frequency / Hz"	"Sound Pressure Level / dB (re 20 µPa/V)  [2.83V at 1m]"	"Frequency / Hz"	"Sound Pressure Level / dB (re 20 µPa/V)  [2.83V at 1m]"	"Frequency / Hz"	"Sound Pressure Level / dB (re 20 µPa/V)  [2.83V at 1m]"	"Frequency / Hz"	"Sound Pressure Level / dB (re 20 µPa/V)  [2.83V at 1m]"	"Frequency / Hz"	"Sound Pressure Level / dB (re 20 µPa/V)  [2.83V at 1m]"	"Frequency / Hz"	"Sound Pressure Level / dB (re 20 µPa/V)  [2.83V at 1m]"	"Frequency / Hz"	"Sound Pressure Level / dB (re 20 µPa/V)  [2.83V at 1m]"	"Frequency / Hz"	"Sound Pressure Level / dB (re 20 µPa/V)  [2.83V at 1m]"	"Frequency / Hz"	"Sound Pressure Level / dB (re 20 µPa/V)  [2.83V at 1m]"	"Frequency / Hz"	"Sound Pressure Level / dB (re 20 µPa/V)  [2.83V at 1m]"	"Frequency / Hz"	"Sound Pressure Level / dB (re 20 µPa/V)  [2.83V at 1m]"	"Frequency / Hz"	"Sound Pressure Level / dB (re 20 µPa/V)  [2.83V at 1m]"	"Frequency / Hz"	"Sound Pressure Level / dB (re 20 µPa/V)  [2.83V at 1m]"	"Frequency / Hz"	"Sound Pressure Level / dB (re 20 µPa/V)  [2.83V at 1m]"	"Frequency / Hz"	"Sound Pressure Level / dB (re 20 µPa/V)  [2.83V at 1m]"	"Frequency / Hz"	"Sound Pressure Level / dB (re 20 µPa/V)  [2.83V at 1m]"	"Frequency / Hz"	"Sound Pressure Level / dB (re 20 µPa/V)  [2.83V at 1m]"	"Frequency / Hz"	"Sound Pressure Level / dB (re 20 µPa/V)  [2.83V at 1m]"	"Frequency / Hz"	"Sound Pressure Level / dB (re 20 µPa/V)  [2.83V at 1m]"	"Frequency / Hz"	"Sound Pressure Level / dB (re 20 µPa/V)  [2.83V at 1m]"	"Frequency / Hz"	"Sound Pressure Level / dB (re 20 µPa/V)  [2.83V at 1m]"	"Frequency / Hz"	"Sound Pressure Level / dB (re 20 µPa/V)  [2.83V at 1m]"
20.5078	56.7032	20.5078	56.6811	20.5078	56.7368	20.5078	56.6757	20.5078	56.7786	20.5078	56.6925	20.5078	56.8271	20.5078	56.7366	20.5078	56.8826	20.5078	56.8113	20.5078	56.9468	20.5078	56.9177	20.5078	57.0221	20.5078	57.0544	20.5078	57.1105	20.5078	57.2175	20.5078	57.2135	20.5078	57.4009	20.5078	57.3313	20.5078	57.5969	20.5078	57.4633	20.5078	57.7965	20.5078	57.6075	20.5078	57.9897	20.5078	57.7605	20.5078	58.1662	20.5078	57.9178	20.5078	58.3159	20.5078	58.073	20.5078	58.4299	20.5078	58.2184	20.5078	58.5016	20.5078	58.3452	20.5078	58.5273	20.5078	58.4443	20.5078	58.5071
21.9727	56.8212	21.9727	56.8205	21.9727	56.8455	21.9727	56.8439	21.9727	56.8914	21.9727	56.8913	21.9727	56.9565	21.9727	56.9611	21.9727	57.0378	21.9727	57.051	21.9727	57.1323	21.9727	57.1576	21.9727	57.2368	21.9727	57.2776	21.9727	57.3487	21.9727	57.4071	21.9727	57.4654	21.9727	57.5425	21.9727	57.5844	21.9727	57.6798	21.9727	57.7037	21.9727	57.8151	21.9727	57.8209	21.9727	57.9439	21.9727	57.9336	21.9727	58.0617	21.9727	58.0391	21.9727	58.1638	21.9727	58.1344	21.9727	58.246	21.9727	58.2161	21.9727	58.3047	21.9727	58.2805	21.9727	58.3376	21.9727	58.3241	21.9727	58.3439
23.4375	58.6097	23.4375	58.6078	23.4375	58.6203	23.4375	58.6159	23.4375	58.639	23.4375	58.6358	23.4375	58.6659	23.4375	58.6696	23.4375	58.7014	23.4375	58.719	23.4375	58.7465	23.4375	58.7853	23.4375	58.802	23.4375	58.8686	23.4375	58.8684	23.4375	58.9678	23.4375	58.9459	23.4375	59.0807	23.4375	59.0342	23.4375	59.2035	23.4375	59.1323	23.4375	59.3316	23.4375	59.2381	23.4375	59.459	23.4375	59.349	23.4375	59.5793	23.4375	59.4613	23.4375	59.6852	23.4375	59.5701	23.4375	59.7701	23.4375	59.6696	23.4375	59.8283	23.4375	59.7537	23.4375	59.8558	23.4375	59.8161	23.4375	59.8513
24.9023	58.1194	24.9023	58.1101	24.9023	58.1214	24.9023	58.095	24.9023	58.1159	24.9023	58.076	24.9023	58.1032	24.9023	58.0558	24.9023	58.0849	24.9023	58.0369	24.9023	58.0629	24.9023	58.022	24.9023	58.04	24.9023	58.0134	24.9023	58.019	24.9023	58.0125	24.9023	58.0024	24.9023	58.02	24.9023	57.9927	24.9023	58.0356	24.9023	57.9912	24.9023	58.0579	24.9023	57.999	24.9023	58.0847	24.9023	58.0157	24.9023	58.1133	24.9023	58.0401	24.9023	58.1403	24.9023	58.07	24.9023	58.1625	24.9023	58.1021	24.9023	58.1768	24.9023	58.1327	24.9023	58.1813	24.9023	58.158	24.9023	58.1748
26.3672	57.2148	26.3672	57.2285	26.3672	57.1949	26.3672	57.237	26.3672	57.1689	26.3672	57.2424	26.3672	57.1381	26.3672	57.2472	26.3672	57.1049	26.3672	57.2543	26.3672	57.0726	26.3672	57.2661	26.3672	57.0445	26.3672	57.2849	26.3672	57.0242	26.3672	57.3119	26.3672	57.0151	26.3672	57.3477	26.3672	57.0197	26.3672	57.3912	26.3672	57.0398	26.3672	57.4402	26.3672	57.0762	26.3672	57.4909	26.3672	57.1282	26.3672	57.5385	26.3672	57.1938	26.3672	57.5772	26.3672	57.2693	26.3672	57.6016	26.3672	57.3495	26.3672	57.6073	26.3672	57.4282	26.3672	57.5917	26.3672	57.4986	26.3672	57.5546
27.832	57.8729	27.832	57.8794	27.832	57.8797	27.832	57.8989	27.832	57.8989	27.832	57.93	27.832	57.9286	27.832	57.9706	27.832	57.9663	27.832	58.0188	27.832	58.0095	27.832	58.0724	27.832	58.056	27.832	58.1301	27.832	58.1045	27.832	58.1907	27.832	58.1541	27.832	58.2533	27.832	58.2046	27.832	58.3168	27.832	58.256	27.832	58.3795	27.832	58.3082	27.832	58.4392	27.832	58.3606	27.832	58.4932	27.832	58.4124	27.832	58.5387	27.832	58.462	27.832	58.5731	27.832	58.5073	27.832	58.5945	27.832	58.5463	27.832	58.602	27.832	58.5764	27.832	58.5956
29.2969	61.2708	29.2969	61.2551	29.2969	61.2812	29.2969	61.2351	29.2969	61.2858	29.2969	61.2126	29.2969	61.2851	29.2969	61.1898	29.2969	61.2799	29.2969	61.1692	29.2969	61.2716	29.2969	61.1529	29.2969	61.2617	29.2969	61.1427	29.2969	61.2517	29.2969	61.1396	29.2969	61.2429	29.2969	61.1438	29.2969	61.2363	29.2969	61.1545	29.2969	61.2325	29.2969	61.1704	29.2969	61.2321	29.2969	61.1896	29.2969	61.2348	29.2969	61.2101	29.2969	61.2403	29.2969	61.2297	29.2969	61.2476	29.2969	61.2467	29.2969	61.2557	29.2969	61.2595	29.2969	61.2631	29.2969	61.2674	29.2969	61.2684	29.2969	61.2702
30.7617	60.0036	30.7617	59.9815	30.7617	60.0153	30.7617	59.9505	30.7617	60.0154	30.7617	59.912	30.7617	60.0033	30.7617	59.8676	30.7617	59.9787	30.7617	59.8187	30.7617	59.9424	30.7617	59.7671	30.7617	59.8957	30.7617	59.7145	30.7617	59.8408	30.7617	59.6627	30.7617	59.7801	30.7617	59.6136	30.7617	59.7165	30.7617	59.5687	30.7617	59.653	30.7617	59.529	30.7617	59.5926	30.7617	59.495	30.7617	59.5378	30.7617	59.4668	30.7617	59.4908	30.7617	59.4438	30.7617	59.4531	30.7617	59.4256	30.7617	59.4254	30.7617	59.4117	30.7617	59.4076	30.7617	59.4021	30.7617	59.3987	30.7617	59.3974
32.2266	64.7594	32.2266	64.7371	32.2266	64.771	32.2266	64.7049	32.2266	64.7715	32.2266	64.6637	32.2266	64.7608	32.2266	64.6148	32.2266	64.739	32.2266	64.5596	32.2266	64.7069	32.2266	64.4995	32.2266	64.6655	32.2266	64.4367	32.2266	64.6164	32.2266	64.3733	32.2266	64.5613	32.2266	64.3114	32.2266	64.5025	32.2266	64.2536	32.2266	64.4419	32.2266	64.202	32.2266	64.3819	32.2266	64.1586	32.2266	64.3244	32.2266	64.1245	32.2266	64.2711	32.2266	64.1005	32.2266	64.2233	32.2266	64.0866	32.2266	64.1818	32.2266	64.0823	32.2266	64.1472	32.2266	64.0869	32.2266	64.1197	32.2266	64.0995
33.6914	68.8483	33.6914	68.8356	33.6914	68.8522	33.6914	68.8148	33.6914	68.847	33.6914	68.7868	33.6914	68.8326	33.6914	68.7523	33.6914	68.8094	33.6914	68.7125	33.6914	68.7782	33.6914	68.6684	33.6914	68.74	33.6914	68.6215	33.6914	68.6964	33.6914	68.5731	33.6914	68.6488	33.6914	68.5248	33.6914	68.5992	33.6914	68.4781	33.6914	68.5493	33.6914	68.4346	33.6914	68.5009	33.6914	68.3956	33.6914	68.4554	33.6914	68.3622	33.6914	68.4141	33.6914	68.3353	33.6914	68.3782	33.6914	68.3153	33.6914	68.3483	33.6914	68.3026	33.6914	68.3249	33.6914	68.2972	33.6914	68.3085	33.6914	68.2992
35.1562	72.1993	35.1562	72.1913	35.1562	72.1982	35.1562	72.175	35.1562	72.1875	35.1562	72.1511	35.1562	72.1671	35.1562	72.1204	35.1562	72.1371	35.1562	72.0838	35.1562	72.0982	35.1562	72.0422	35.1562	72.0516	35.1562	71.9966	35.1562	71.9989	35.1562	71.9483	35.1562	71.9421	35.1562	71.8986	35.1562	71.8833	35.1562	71.8487	35.1562	71.825	35.1562	71.8002	35.1562	71.7693	35.1562	71.7542	35.1562	71.7185	35.1562	71.7118	35.1562	71.6743	35.1562	71.674	35.1562	71.6381	35.1562	71.6419	35.1562	71.611	35.1562	71.6161	35.1562	71.5935	35.1562	71.5976	35.1562	71.5856	35.1562	71.5872
36.6211	75.5444	36.6211	75.5405	36.6211	75.5357	36.6211	75.5239	36.6211	75.5145	36.6211	75.4953	36.6211	75.4815	36.6211	75.4554	36.6211	75.4375	36.6211	75.4055	36.6211	75.384	36.6211	75.3474	36.6211	75.3225	36.6211	75.2828	36.6211	75.2552	36.6211	75.214	36.6211	75.1841	36.6211	75.1434	36.6211	75.1116	36.6211	75.0732	36.6211	75.0403	36.6211	75.0056	36.6211	74.9723	36.6211	74.9425	36.6211	74.9098	36.6211	74.8854	36.6211	74.8547	36.6211	74.8358	36.6211	74.8087	36.6211	74.7949	36.6211	74.7728	36.6211	74.7635	36.6211	74.7479	36.6211	74.7427	36.6211	74.7346	36.6211	74.7329
38.0859	77.8675	38.0859	77.8622	38.0859	77.8577	38.0859	77.8418	38.0859	77.8335	38.0859	77.8069	38.0859	77.7959	38.0859	77.7587	38.0859	77.7461	38.0859	77.6991	38.0859	77.6858	38.0859	77.6304	38.0859	77.6171	38.0859	77.5555	38.0859	77.5423	38.0859	77.4774	38.0859	77.4636	38.0859	77.3991	38.0859	77.3839	38.0859	77.3231	38.0859	77.3057	38.0859	77.2517	38.0859	77.2318	38.0859	77.1867	38.0859	77.1643	38.0859	77.1292	38.0859	77.1054	38.0859	77.0801	38.0859	77.0566	38.0859	77.0399	38.0859	77.0191	38.0859	77.0092	38.0859	76.9936	38.0859	76.9885	38.0859	76.9802	38.0859	76.9787
39.5508	80.2026	39.5508	80.1954	39.5508	80.1942	39.5508	80.1728	39.5508	80.1705	39.5508	80.1353	39.5508	80.1322	39.5508	80.0843	39.5508	80.0807	39.5508	80.0214	39.5508	80.0176	39.5508	79.9486	39.5508	79.9449	39.5508	79.8683	39.5508	79.8651	39.5508	79.7833	39.5508	79.7807	39.5508	79.6965	39.5508	79.6946	39.5508	79.6108	39.5508	79.6097	39.5508	79.5289	39.5508	79.5285	39.5508	79.4534	39.5508	79.4535	39.5508	79.3864	39.5508	79.3869	39.5508	79.3297	39.5508	79.3304	39.5508	79.2845	39.5508	79.2852	39.5508	79.2518	39.5508	79.2523	39.5508	79.232	39.5508	79.2323	39.5508	79.2255
41.0156	82.0894	41.0156	82.0822	41.0156	82.0796	41.0156	82.0584	41.0156	82.0533	41.0156	82.0187	41.0156	82.0113	41.0156	81.9645	41.0156	81.955	41.0156	81.8976	41.0156	81.8862	41.0156	81.8201	41.0156	81.8072	41.0156	81.7349	41.0156	81.7207	41.0156	81.6448	41.0156	81.6297	41.0156	81.5529	41.0156	81.5371	41.0156	81.4622	41.0156	81.4462	41.0156	81.3757	41.0156	81.3598	41.0156	81.296	41.0156	81.2807	41.0156	81.2252	41.0156	81.211	41.0156	81.165	41.0156	81.1526	41.0156	81.1167	41.0156	81.1067	41.0156	81.0811	41.0156	81.0741	41.0156	81.0588	41.0156	81.0551	41.0156	81.0501
42.4805	83.6431	42.4805	83.6342	42.4805	83.6344	42.4805	83.6083	42.4805	83.6085	42.4805	83.566	42.4805	83.566	42.4805	83.5087	42.4805	83.508	42.4805	83.4381	42.4805	83.4362	42.4805	83.3564	42.4805	83.3529	42.4805	83.2662	42.4805	83.2606	42.4805	83.1704	42.4805	83.1624	42.4805	83.0721	42.4805	83.0615	42.4805	82.9745	42.4805	82.9614	42.4805	82.8806	42.4805	82.8654	42.4805	82.7933	42.4805	82.7767	42.4805	82.7149	42.4805	82.6981	42.4805	82.6476	42.4805	82.6318	42.4805	82.593	42.4805	82.5795	42.4805	82.5522	42.4805	82.5424	42.4805	82.5263	42.4805	82.5211	42.4805	82.5158
43.9453	84.8952	43.9453	84.8868	43.9453	84.8846	43.9453	84.8597	43.9453	84.8553	43.9453	84.8146	43.9453	84.8081	43.9453	84.7527	43.9453	84.7441	43.9453	84.6758	43.9453	84.6651	43.9453	84.5862	43.9453	84.5733	43.9453	84.4865	43.9453	84.471	43.9453	84.3799	43.9453	84.3615	43.9453	84.2696	43.9453	84.2481	43.9453	84.159	43.9453	84.1344	43.9453	84.0516	43.9453	84.0242	43.9453	83.9504	43.9453	83.9213	43.9453	83.8584	43.9453	83.8291	43.9453	83.7781	43.9453	83.7506	43.9453	83.7118	43.9453	83.6885	43.9453	83.6615	43.9453	83.6444	43.9453	83.6286	43.9453	83.6196	43.9453	83.6144
45.4102	85.7615	45.4102	85.7569	45.4102	85.7483	45.4102	85.7346	45.4102	85.7178	45.4102	85.6948	45.4102	85.6707	45.4102	85.6384	45.4102	85.6081	45.4102	85.5666	45.4102	85.5316	45.4102	85.4814	45.4102	85.443	45.4102	85.3851	45.4102	85.3446	45.4102	85.2806	45.4102	85.2392	45.4102	85.171	45.4102	85.1297	45.4102	85.0599	45.4102	85.0196	45.4102	84.9508	45.4102	84.9123	45.4102	84.8473	45.4102	84.8115	45.4102	84.7526	45.4102	84.7204	45.4102	84.6698	45.4102	84.6423	45.4102	84.6015	45.4102	84.5797	45.4102	84.5499	45.4102	84.5347	45.4102	84.5165	45.4102	84.5087	45.4102	84.5027
46.875	86.495	46.875	86.4879	46.875	86.4851	46.875	86.4641	46.875	86.4587	46.875	86.4239	46.875	86.4162	46.875	86.3684	46.875	86.3588	46.875	86.2988	46.875	86.2877	46.875	86.2171	46.875	86.2048	46.875	86.1255	46.875	86.1123	46.875	86.027	46.875	86.0128	46.875	85.9245	46.875	85.9095	46.875	85.8214	46.875	85.8055	46.875	85.7209	46.875	85.7044	46.875	85.6262	46.875	85.6094	46.875	85.5402	46.875	85.5237	46.875	85.4656	46.875	85.4504	46.875	85.4044	46.875	85.3916	46.875	85.3586	46.875	85.3492	46.875	85.3294	46.875	85.3245	46.875	85.3178
48.3398	86.9882	48.3398	86.9774	48.3398	86.9818	48.3398	86.9497	48.3398	86.9585	48.3398	86.9059	48.3398	86.9189	48.3398	86.8471	48.3398	86.8641	48.3398	86.775	48.3398	86.7955	48.3398	86.6916	48.3398	86.7151	48.3398	86.5995	48.3398	86.6252	48.3398	86.5015	48.3398	86.5286	48.3398	86.4008	48.3398	86.4282	48.3398	86.3006	48.3398	86.3272	48.3398	86.204	48.3398	86.2289	48.3398	86.114	48.3398	86.1362	48.3398	86.0333	48.3398	86.0522	48.3398	85.9643	48.3398	85.9795	48.3398	85.9089	48.3398	85.9201	48.3398	85.8686	48.3398	85.876	48.3398	85.8447	48.3398	85.8483	48.3398	85.8378
51.2695	87.5149	51.2695	87.5017	51.2695	87.5124	51.2695	87.4733	51.2695	87.4946	51.2695	87.4305	51.2695	87.462	51.2695	87.3749	51.2695	87.416	51.2695	87.3086	51.2695	87.3582	51.2695	87.2342	51.2695	87.2909	51.2695	87.1548	51.2695	87.2169	51.2695	87.074	51.2695	87.1392	51.2695	86.9951	51.2695	87.0607	51.2695	86.9213	51.2695	86.9846	51.2695	86.855	51.2695	86.9136	51.2695	86.798	51.2695	86.85	51.2695	86.7514	51.2695	86.7951	51.2695	86.7153	51.2695	86.75	51.2695	86.6892	51.2695	86.7148	51.2695	86.6724	51.2695	86.6891	51.2695	86.6643	51.2695	86.6725	51.2695	86.6643
52.7344	87.8764	52.7344	87.8574	52.7344	87.8749	52.7344	87.8185	52.7344	87.8533	52.7344	87.7608	52.7344	87.8126	52.7344	87.6866	52.7344	87.7542	52.7344	87.5984	52.7344	87.6804	52.7344	87.4999	52.7344	87.5941	52.7344	87.395	52.7344	87.4985	52.7344	87.2879	52.7344	87.3973	52.7344	87.1832	52.7344	87.2945	52.7344	87.0849	52.7344	87.1941	52.7344	86.9966	52.7344	87.0997	52.7344	86.9209	52.7344	87.0145	52.7344	86.8594	52.7344	86.9406	52.7344	86.8127	52.7344	86.8793	52.7344	86.7801	52.7344	86.8308	52.7344	86.7606	52.7344	86.7947	52.7344	86.753	52.7344	86.7701	52.7344	86.7563
54.1992	88.1495	54.1992	88.1302	54.1992	88.1496	54.1992	88.0922	54.1992	88.1306	54.1992	88.0366	54.1992	88.0931	54.1992	87.9651	54.1992	88.0382	54.1992	87.88	54.1992	87.9675	54.1992	87.784	54.1992	87.883	54.1992	87.6806	54.1992	87.7877	54.1992	87.5734	54.1992	87.6846	54.1992	87.4662	54.1992	87.5772	54.1992	87.3627	54.1992	87.4695	54.1992	87.2663	54.1992	87.3651	54.1992	87.1798	54.1992	87.2676	54.1992	87.1054	54.1992	87.1799	54.1992	87.0447	54.1992	87.1045	54.1992	86.9985	54.1992	87.0431	54.1992	86.9673	54.1992	86.9968	54.1992	86.9514	54.1992	86.966	54.1992	86.9509
55.6641	88.2542	55.6641	88.2325	55.6641	88.2558	55.6641	88.1911	55.6641	88.237	55.6641	88.1315	55.6641	88.1987	55.6641	88.0557	55.6641	88.142	55.6641	87.9662	55.6641	88.069	55.6641	87.8666	55.6641	87.9822	55.6641	87.7607	55.6641	87.8847	55.6641	87.6525	55.6641	87.7803	55.6641	87.5462	55.6641	87.673	55.6641	87.4459	55.6641	87.5668	55.6641	87.3548	55.6641	87.4658	55.6641	87.2754	55.6641	87.3732	55.6641	87.2095	55.6641	87.2918	55.6641	87.1577	55.6641	87.2233	55.6641	87.12	55.6641	87.1686	55.6641	87.0959	55.6641	87.1279	55.6641	87.0848	55.6641	87.1006	55.6641	87.0864
58.5938	88.4261	58.5938	88.3905	58.5938	88.4394	58.5938	88.3338	58.5938	88.4301	58.5938	88.2578	58.5938	88.3986	58.5938	88.1652	58.5938	88.3461	58.5938	88.0593	58.5938	88.2745	58.5938	87.9442	58.5938	88.1864	58.5938	87.8245	58.5938	88.085	58.5938	87.7049	58.5938	87.9743	58.5938	87.5901	58.5938	87.8584	58.5938	87.4845	58.5938	87.7417	58.5938	87.3915	58.5938	87.6288	58.5938	87.3134	58.5938	87.5235	58.5938	87.2514	58.5938	87.429	58.5938	87.2056	58.5938	87.3477	58.5938	87.1752	58.5938	87.2809	58.5938	87.1593	58.5938	87.2289	58.5938	87.1569	58.5938	87.1913	58.5938	87.1675
60.0586	88.535	60.0586	88.487	60.0586	88.5602	60.0586	88.4175	60.0586	88.5622	60.0586	88.3285	60.0586	88.5413	60.0586	88.2231	60.0586	88.4985	60.0586	88.1048	60.0586	88.4356	60.0586	87.9783	60.0586	88.355	60.0586	87.8485	60.0586	88.2597	60.0586	87.721	60.0586	88.1534	60.0586	87.6011	60.0586	88.0399	60.0586	87.4934	60.0586	87.9234	60.0586	87.4019	60.0586	87.808	60.0586	87.3289	60.0586	87.6977	60.0586	87.2753	60.0586	87.5955	60.0586	87.241	60.0586	87.504	60.0586	87.2243	60.0586	87.4248	60.0586	87.2238	60.0586	87.3585	60.0586	87.2378	60.0586	87.3054	60.0586	87.2651
62.9883	88.5573	62.9883	88.5013	62.9883	88.5864	62.9883	88.4193	62.9883	88.5886	62.9883	88.3134	62.9883	88.565	62.9883	88.1869	62.9883	88.5174	62.9883	88.0441	62.9883	88.4483	62.9883	87.8906	62.9883	88.3609	62.9883	87.7326	62.9883	88.2585	62.9883	87.577	62.9883	88.145	62.9883	87.4309	62.9883	88.0242	62.9883	87.3007	62.9883	87.9	62.9883	87.1919	62.9883	87.7762	62.9883	87.1084	62.9883	87.6561	62.9883	87.0518	62.9883	87.5422	62.9883	87.0218	62.9883	87.4365	62.9883	87.0165	62.9883	87.3404	62.9883	87.0327	62.9883	87.2547	62.9883	87.0672	62.9883	87.18	62.9883	87.117
64.4531	88.5072	64.4531	88.4501	64.4531	88.538	64.4531	88.3672	64.4531	88.5426	64.4531	88.2605	64.4531	88.5223	64.4531	88.1327	64.4531	88.4788	64.4531	87.9882	64.4531	88.4144	64.4531	87.832	64.4531	88.3319	64.4531	87.6703	64.4531	88.2342	64.4531	87.51	64.4531	88.1247	64.4531	87.3583	64.4531	88.0067	64.4531	87.2221	64.4531	87.8836	64.4531	87.1074	64.4531	87.7588	64.4531	87.0187	64.4531	87.6353	64.4531	86.9585	64.4531	87.5158	64.4531	86.9272	64.4531	87.4025	64.4531	86.9231	64.4531	87.2971	64.4531	86.9433	64.4531	87.2011	64.4531	86.9843	64.4531	87.1157	64.4531	87.0428
67.3828	88.7285	67.3828	88.6783	67.3828	88.7592	67.3828	88.6077	67.3828	88.7718	67.3828	88.5167	67.3828	88.7681	67.3828	88.4063	67.3828	88.7501	67.3828	88.2789	67.3828	88.7196	67.3828	88.1385	67.3828	88.6783	67.3828	87.9906	67.3828	88.6278	67.3828	87.842	67.3828	88.5692	67.3828	87.701	67.3828	88.5035	67.3828	87.5758	67.3828	88.4311	67.3828	87.4747	67.3828	88.3521	67.3828	87.4041	67.3828	88.2666	67.3828	87.368	67.3828	88.1744	67.3828	87.3675	67.3828	88.0757	67.3828	87.4004	67.3828	87.9711	67.3828	87.462	67.3828	87.8623	67.3828	87.5458	67.3828	87.7521	67.3828	87.6447
68.8477	88.6858	68.8477	88.6688	68.8477	88.6836	68.8477	88.631	68.8477	88.6642	68.8477	88.5717	68.8477	88.6304	68.8477	88.4911	68.8477	88.5848	68.8477	88.3908	68.8477	88.5304	68.8477	88.2738	68.8477	88.47	68.8477	88.1449	68.8477	88.4062	68.8477	88.01	68.8477	88.3412	68.8477	87.8764	68.8477	88.2762	68.8477	87.7523	68.8477	88.212	68.8477	87.6454	68.8477	88.1483	68.8477	87.5628	68.8477	88.0842	68.8477	87.5092	68.8477	88.0184	68.8477	87.4867	68.8477	87.9497	68.8477	87.4942	68.8477	87.8772	68.8477	87.5278	68.8477	87.8015	68.8477	87.5817	68.8477	87.7243	68.8477	87.6493
71.7773	88.7051	71.7773	88.7099	71.7773	88.6767	71.7773	88.6902	71.7773	88.6266	71.7773	88.6462	71.7773	88.5571	71.7773	88.5788	71.7773	88.4717	71.7773	88.4905	71.7773	88.3741	71.7773	88.3846	71.7773	88.2689	71.7773	88.2655	71.7773	88.1608	71.7773	88.1388	71.7773	88.0546	71.7773	88.0106	71.7773	87.9543	71.7773	87.8875	71.7773	87.8635	71.7773	87.7754	71.7773	87.7842	71.7773	87.6794	71.7773	87.7171	71.7773	87.6032	71.7773	87.6617	71.7773	87.5481	71.7773	87.6164	71.7773	87.5136	71.7773	87.5793	71.7773	87.4974	71.7773	87.5489	71.7773	87.4961	71.7773	87.5243	71.7773	87.506
74.707	88.6291	74.707	88.6297	74.707	88.6036	74.707	88.605	74.707	88.5545	74.707	88.5558	74.707	88.484	74.707	88.4836	74.707	88.3953	74.707	88.3913	74.707	88.2921	74.707	88.2827	74.707	88.1793	74.707	88.1626	74.707	88.062	74.707	88.0366	74.707	87.9456	74.707	87.9107	74.707	87.8352	74.707	87.791	74.707	87.7352	74.707	87.6829	74.707	87.6486	74.707	87.5906	74.707	87.5771	74.707	87.5169	74.707	87.5205	74.707	87.4623	74.707	87.4774	74.707	87.4259	74.707	87.4455	74.707	87.4051	74.707	87.4227	74.707	87.3968	74.707	87.4071	74.707	87.3982
77.6367	88.4725	77.6367	88.4666	77.6367	88.4524	77.6367	88.4349	77.6367	88.4074	77.6367	88.3785	77.6367	88.3395	77.6367	88.2999	77.6367	88.2517	77.6367	88.2025	77.6367	88.1479	77.6367	88.091	77.6367	88.0332	77.6367	87.9706	77.6367	87.913	77.6367	87.8475	77.6367	87.7934	77.6367	87.7278	77.6367	87.6801	77.6367	87.6172	77.6367	87.5782	77.6367	87.5205	77.6367	87.4914	77.6367	87.4407	77.6367	87.4215	77.6367	87.379	77.6367	87.3688	77.6367	87.3349	77.6367	87.3314	77.6367	87.3061	77.6367	87.3067	77.6367	87.2894	77.6367	87.2916	77.6367	87.2816	77.6367	87.2832	77.6367	87.2799
79.1016	88.4224	79.1016	88.4104	79.1016	88.4078	79.1016	88.3722	79.1016	88.3672	79.1016	88.3093	79.1016	88.3026	79.1016	88.2243	79.1016	88.2168	79.1016	88.1211	79.1016	88.1138	79.1016	88.0046	79.1016	87.9985	79.1016	87.8805	79.1016	87.8766	79.1016	87.7551	79.1016	87.7544	79.1016	87.6348	79.1016	87.6378	79.1016	87.5254	79.1016	87.5324	79.1016	87.4315	79.1016	87.4421	79.1016	87.3559	79.1016	87.3692	79.1016	87.2993	79.1016	87.314	79.1016	87.2605	79.1016	87.275	79.1016	87.2367	79.1016	87.2492	79.1016	87.2241	79.1016	87.2333	79.1016	87.2193	79.1016	87.2242	79.1016	87.2197
82.0312	88.3226	82.0312	88.2947	82.0312	88.3213	82.0312	88.2386	82.0312	88.2912	82.0312	88.1564	82.0312	88.2341	82.0312	88.0516	82.0312	88.1529	82.0312	87.929	82.0312	88.052	82.0312	87.7943	82.0312	87.9365	82.0312	87.6543	82.0312	87.8126	82.0312	87.516	82.0312	87.6866	82.0312	87.3867	82.0312	87.5649	82.0312	87.2725	82.0312	87.4529	82.0312	87.1785	82.0312	87.3548	82.0312	87.1074	82.0312	87.2729	82.0312	87.0593	82.0312	87.2076	82.0312	87.0321	82.0312	87.1573	82.0312	87.0219	82.0312	87.1196	82.0312	87.0241	82.0312	87.0908	82.0312	87.0344	82.0312	87.0682	82.0312	87.0495
84.9609	88.1616	84.9609	88.1399	84.9609	88.1529	84.9609	88.0884	84.9609	88.1148	84.9609	88.0092	84.9609	88.0496	84.9609	87.9055	84.9609	87.9611	84.9609	87.7822	84.9609	87.8545	84.9609	87.6449	84.9609	87.7358	84.9609	87.5002	84.9609	87.6119	84.9609	87.3556	84.9609	87.4897	84.9609	87.2186	84.9609	87.3752	84.9609	87.0962	84.9609	87.2735	84.9609	86.9943	84.9609	87.1874	84.9609	86.9169	84.9609	87.1175	84.9609	86.8653	84.9609	87.0624	84.9609	86.8386	84.9609	87.0189	84.9609	86.833	84.9609	86.9831	84.9609	86.8436	84.9609	86.9514	84.9609	86.8648	84.9609	86.9212	84.9609	86.8918
87.8906	88.234	87.8906	88.2397	87.8906	88.1988	87.8906	88.2157	87.8906	88.1359	87.8906	88.1633	87.8906	88.0482	87.8906	88.0851	87.8906	87.9402	87.8906	87.9855	87.8906	87.8177	87.8906	87.87	87.8906	87.6875	87.8906	87.7454	87.8906	87.5575	87.8906	87.6193	87.8906	87.4357	87.8906	87.499	87.8906	87.3294	87.8906	87.3916	87.8906	87.2443	87.8906	87.3022	87.8906	87.1835	87.8906	87.234	87.8906	87.1468	87.8906	87.1878	87.8906	87.1308	87.8906	87.1613	87.8906	87.1299	87.8906	87.1504	87.8906	87.1374	87.8906	87.1496	87.8906	87.1468	87.8906	87.1529	87.8906	87.1535	87.8906	87.1553
90.8203	88.2772	90.8203	88.2707	90.8203	88.2506	90.8203	88.2312	90.8203	88.1919	90.8203	88.1605	90.8203	88.1037	90.8203	88.0623	90.8203	87.99	90.8203	87.9417	90.8203	87.8563	90.8203	87.8056	90.8203	87.7094	90.8203	87.6624	90.8203	87.5576	90.8203	87.521	90.8203	87.41	90.8203	87.3903	90.8203	87.276	90.8203	87.2777	90.8203	87.1635	90.8203	87.1887	90.8203	87.0784	90.8203	87.1251	90.8203	87.0228	90.8203	87.0857	90.8203	86.9952	90.8203	87.0658	90.8203	86.9905	90.8203	87.059	90.8203	87.0012	90.8203	87.0581	90.8203	87.0191	90.8203	87.0567	90.8203	87.037	90.8203	87.0501
95.2148	88.0382	95.2148	88.0144	95.2148	88.0253	95.2148	87.9547	95.2148	87.9767	95.2148	87.8613	95.2148	87.8946	95.2148	87.7382	95.2148	87.783	95.2148	87.5913	95.2148	87.6473	95.2148	87.4282	95.2148	87.4945	95.2148	87.2581	95.2148	87.333	95.2148	87.0915	95.2148	87.1722	95.2148	86.9386	95.2148	87.0219	95.2148	86.8087	95.2148	86.8906	95.2148	86.7083	95.2148	86.785	95.2148	86.6401	95.2148	86.7084	95.2148	86.6025	95.2148	86.6601	95.2148	86.59	95.2148	86.6357	95.2148	86.5946	95.2148	86.6281	95.2148	86.6073	95.2148	86.629	95.2148	86.6205	95.2148	86.6311	95.2148	86.6289
98.1445	87.9127	98.1445	87.8827	98.1445	87.9039	98.1445	87.8143	98.1445	87.857	98.1445	87.71	98.1445	87.7746	98.1445	87.5741	98.1445	87.6609	98.1445	87.4128	98.1445	87.5215	98.1445	87.234	98.1445	87.3637	98.1445	87.0478	98.1445	87.196	98.1445	86.8651	98.1445	87.0281	98.1445	86.6973	98.1445	86.8697	98.1445	86.5544	98.1445	86.7297	98.1445	86.4441	98.1445	86.6148	98.1445	86.3698	98.1445	86.5284	98.1445	86.33	98.1445	86.47	98.1445	86.3191	98.1445	86.4354	98.1445	86.3284	98.1445	86.4175	98.1445	86.3482	98.1445	86.4082	98.1445	86.37	98.1445	86.4001	98.1445	86.388
101.074	87.7928	101.074	87.7592	101.074	87.7858	101.074	87.6858	101.074	87.7391	101.074	87.5751	101.074	87.6553	101.074	87.4314	101.074	87.5388	101.074	87.2611	101.074	87.3956	101.074	87.0724	101.074	87.2334	101.074	86.8754	101.074	87.0614	101.074	86.6816	101.074	86.8897	101.074	86.503	101.074	86.7284	101.074	86.3508	101.074	86.5868	101.074	86.2336	101.074	86.4711	101.074	86.1559	101.074	86.3845	101.074	86.1166	101.074	86.3256	101.074	86.1101	101.074	86.2894	101.074	86.1269	101.074	86.2683	101.074	86.1563	101.074	86.2538	101.074	86.1887	101.074	86.2383	101.074	86.217
105.469	87.5912	105.469	87.583	105.469	87.558	105.469	87.534	105.469	87.4842	105.469	87.4462	105.469	87.3726	105.469	87.3234	105.469	87.2277	105.469	87.171	105.469	87.0561	105.469	86.996	105.469	86.8662	105.469	86.8072	105.469	86.6685	105.469	86.6147	105.469	86.4744	105.469	86.4296	105.469	86.2962	105.469	86.2628	105.469	86.1443	105.469	86.1236	105.469	86.0265	105.469	86.0179	105.469	85.9458	105.469	85.9473	105.469	85.8999	105.469	85.9084	105.469	85.8821	105.469	85.8938	105.469	85.8827	105.469	85.894	105.469	85.8913	105.469	85.8994	105.469	85.8997	105.469	85.9026
108.398	87.4415	108.398	87.446	108.398	87.3962	108.398	87.4099	108.398	87.3114	108.398	87.3348	108.398	87.19	108.398	87.2241	108.398	87.0362	108.398	87.0833	108.398	86.8561	108.398	86.9196	108.398	86.6577	108.398	86.742	108.398	86.4508	108.398	86.5609	108.398	86.2471	108.398	86.387	108.398	86.0592	108.398	86.2305	108.398	85.8991	108.398	86.099	108.398	85.7763	108.398	85.9968	108.398	85.6958	108.398	85.9239	108.398	85.6567	108.398	85.876	108.398	85.6528	108.398	85.8457	108.398	85.6737	108.398	85.8242	108.398	85.7079	108.398	85.8035	108.398	85.7449	108.398	85.7777
112.793	87.2259	112.793	87.1966	112.793	87.2122	112.793	87.1243	112.793	87.1569	112.793	87.0111	112.793	87.0628	112.793	86.8615	112.793	86.9338	112.793	86.6826	112.793	86.775	112.793	86.4846	112.793	86.5935	112.793	86.2802	112.793	86.398	112.793	86.0833	112.793	86.1992	112.793	85.9079	112.793	86.0092	112.793	85.7651	112.793	85.8402	112.793	85.6619	112.793	85.7028	112.793	85.5989	112.793	85.6038	112.793	85.5708	112.793	85.5449	112.793	85.5678	112.793	85.5219	112.793	85.5777	112.793	85.5258	112.793	85.5893	112.793	85.5453	112.793	85.5937	112.793	85.5688	112.793	85.5867
117.188	87.0298	117.188	86.9273	117.188	87.079	117.188	86.7724	117.188	87.0759	117.188	86.5679	117.188	87.0229	117.188	86.3193	117.188	86.9243	117.188	86.0355	117.188	86.7857	117.188	85.729	117.188	86.6149	117.188	85.4165	117.188	86.4211	117.188	85.1183	117.188	86.2151	117.188	84.8571	117.188	86.0084	117.188	84.6537	117.188	85.8119	117.188	84.5234	117.188	85.635	117.188	84.4706	117.188	85.4839	117.188	84.4881	117.188	85.3607	117.188	84.5585	117.188	85.2632	117.188	84.6598	117.188	85.1848	117.188	84.7712	117.188	85.1163	117.188	84.8771	117.188	85.0475	117.188	84.9695
120.117	87.2995	120.117	87.2579	120.117	87.2884	120.117	87.1644	120.117	87.2258	120.117	87.0216	120.117	87.1153	120.117	86.8338	120.117	86.9631	120.117	86.607	120.117	86.7777	120.117	86.3491	120.117	86.5703	120.117	86.0704	120.117	86.354	120.117	85.7844	120.117	86.1428	120.117	85.5077	120.117	85.9497	120.117	85.259	120.117	85.7847	120.117	85.0574	120.117	85.653	120.117	84.9176	120.117	85.5538	120.117	84.8467	120.117	85.4808	120.117	84.8412	120.117	85.424	120.117	84.8882	120.117	85.3719	120.117	84.9692	120.117	85.3144	120.117	85.0651	120.117	85.2446	120.117	85.1602
124.512	87.3812	124.512	87.3774	124.512	87.3372	124.512	87.3252	124.512	87.2469	124.512	87.226	124.512	87.1133	124.512	87.0831	124.512	86.9407	124.512	86.9024	124.512	86.7357	124.512	86.6926	124.512	86.5074	124.512	86.4659	124.512	86.2682	124.512	86.2368	124.512	86.0338	124.512	86.0215	124.512	85.8219	124.512	85.8358	124.512	85.6493	124.512	85.6921	124.512	85.5287	124.512	85.5972	124.512	85.4648	124.512	85.5501	124.512	85.4526	124.512	85.5428	124.512	85.4788	124.512	85.5617	124.512	85.5251	124.512	85.5909	124.512	85.5733	124.512	85.6153	124.512	85.6088	124.512	85.6232
128.906	87.3187	128.906	87.2553	128.906	87.3247	128.906	87.1361	128.906	87.2731	128.906	86.9642	128.906	87.1649	128.906	86.7448	128.906	87.0033	128.906	86.4857	128.906	86.7938	128.906	86.1979	128.906	86.5456	128.906	85.8967	128.906	86.2718	128.906	85.6007	128.906	85.9902	128.906	85.3314	128.906	85.7217	128.906	85.1103	128.906	85.4881	128.906	84.9543	128.906	85.3074	128.906	84.8712	128.906	85.1895	128.906	84.8572	128.906	85.1327	128.906	84.8976	128.906	85.1243	128.906	84.9703	128.906	85.1439	128.906	85.0518	128.906	85.1691	128.906	85.1217	128.906	85.1809	128.906	85.1664
133.301	87.0565	133.301	87.0238	133.301	87.0336	133.301	86.9368	133.301	86.9549	133.301	86.7979	133.301	86.8214	133.301	86.6107	133.301	86.6358	133.301	86.3803	133.301	86.4027	133.301	86.1141	133.301	86.1296	133.301	85.8225	133.301	85.8274	133.301	85.5195	133.301	85.5108	133.301	85.2229	133.301	85.199	133.301	84.9525	133.301	84.9136	133.301	84.7274	133.301	84.6758	133.301	84.5611	133.301	84.5012	133.301	84.4578	133.301	84.3957	133.301	84.4104	133.301	84.3526	133.301	84.4031	133.301	84.3551	133.301	84.4152	133.301	84.3812	133.301	84.4278	133.301	84.4103	133.301	84.4276
139.16	86.5216	139.16	86.4754	139.16	86.5121	139.16	86.3734	139.16	86.448	139.16	86.2171	139.16	86.3315	139.16	86.0098	139.16	86.1661	139.16	85.7578	139.16	85.9569	139.16	85.4705	139.16	85.7111	139.16	85.1615	139.16	85.4387	139.16	84.8485	139.16	85.1527	139.16	84.5525	139.16	84.869	139.16	84.2949	139.16	84.605	139.16	84.0939	139.16	84.3775	139.16	83.9594	139.16	84.1994	139.16	83.8904	139.16	84.0767	139.16	83.8749	139.16	84.0063	139.16	83.8937	139.16	83.9772	139.16	83.9264	139.16	83.9729	139.16	83.956	139.16	83.9761	139.16	83.973
143.555	86.4352	143.555	86.3683	143.555	86.44	143.555	86.2401	143.555	86.3836	143.555	86.0534	143.555	86.269	143.555	85.8132	143.555	86.1012	143.555	85.5275	143.555	85.8881	143.555	85.2075	143.555	85.6404	143.555	84.8689	143.555	85.3714	143.555	84.5321	143.555	85.097	143.555	84.2208	143.555	84.8339	143.555	83.96	143.555	84.5977	143.555	83.7699	143.555	84.4006	143.555	83.6608	143.555	84.249	143.555	83.6292	143.555	84.1426	143.555	83.6586	143.555	84.0747	143.555	83.7251	143.555	84.0339	143.555	83.8048	143.555	84.0061	143.555	83.8789	143.555	83.9775	143.555	83.937
147.949	86.5704	147.949	86.5452	147.949	86.5246	147.949	86.4508	147.949	86.408	147.949	86.2909	147.949	86.2235	147.949	86.0714	147.949	85.9771	147.949	85.7999	147.949	85.6792	147.949	85.4874	147.949	85.3456	147.949	85.1486	147.949	84.9985	147.949	84.8028	147.949	84.666	147.949	84.4749	147.949	84.3796	147.949	84.1927	147.949	84.1672	147.949	83.9827	147.949	84.0454	147.949	83.8626	147.949	84.0128	147.949	83.8348	147.949	84.0503	147.949	83.8844	147.949	84.1274	147.949	83.9835	147.949	84.2113	147.949	84.0998	147.949	84.2745	147.949	84.2039	147.949	84.2982	147.949	84.2741
153.809	86.6724	153.809	86.5945	153.809	86.6835	153.809	86.4501	153.809	86.6271	153.809	86.2403	153.809	86.503	153.809	85.9672	153.809	86.3108	153.809	85.6352	153.809	86.0518	153.809	85.2526	153.809	85.7299	153.809	84.8334	153.809	85.3537	153.809	84.3996	153.809	84.9394	153.809	83.9812	153.809	84.5124	153.809	83.6153	153.809	84.1078	153.809	83.3388	153.809	83.7664	153.809	83.1771	153.809	83.5238	153.809	83.1336	153.809	83.3969	153.809	83.1865	153.809	83.3751	153.809	83.2962	153.809	83.4235	153.809	83.4183	153.809	83.4965	153.809	83.5149	153.809	83.5522	153.809	83.562
159.668	86.2912	159.668	86.2869	159.668	86.2417	159.668	86.2277	159.668	86.1399	159.668	86.1128	159.668	85.9877	159.668	85.9424	159.668	85.7868	159.668	85.7178	159.668	85.5397	159.668	85.4428	159.668	85.2495	159.668	85.1243	159.668	84.9218	159.668	84.7744	159.668	84.5658	159.668	84.411	159.668	84.1968	159.668	84.0576	159.668	83.8367	159.668	83.7406	159.668	83.5132	159.668	83.4839	159.668	83.2538	159.668	83.3016	159.668	83.0784	159.668	83.1928	159.668	82.9906	159.668	83.1418	159.668	82.9755	159.668	83.1236	159.668	83.0058	159.668	83.1125	159.668	83.0516	159.668	83.0903
165.527	86.4461	165.527	86.3534	165.527	86.4695	165.527	86.1898	165.527	86.4256	165.527	85.9543	165.527	86.3167	165.527	85.648	165.527	86.1459	165.527	85.2754	165.527	85.9179	165.527	84.8459	165.527	85.6395	165.527	84.3764	165.527	85.3207	165.527	83.8929	165.527	84.975	165.527	83.431	165.527	84.6193	165.527	83.0334	165.527	84.2731	165.527	82.7405	165.527	83.9566	165.527	82.5775	165.527	83.6881	165.527	82.5424	165.527	83.4798	165.527	82.6069	165.527	83.3338	165.527	82.7279	165.527	83.241	165.527	82.863	165.527	83.1822	165.527	82.9822	165.527	83.1332	165.527	83.0715
171.387	86.6936	171.387	86.6845	171.387	86.6448	171.387	86.6192	171.387	86.5376	171.387	86.5004	171.387	86.3724	171.387	86.3307	171.387	86.1508	171.387	86.113	171.387	85.8761	171.387	85.8504	171.387	85.5534	171.387	85.5468	171.387	85.1922	171.387	85.2094	171.387	84.8084	171.387	84.8507	171.387	84.4261	171.387	84.4911	171.387	84.0774	171.387	84.1583	171.387	83.7963	171.387	83.8833	171.387	83.6087	171.387	83.6909	171.387	83.5209	171.387	83.5896	171.387	83.5159	171.387	83.5669	171.387	83.5603	171.387	83.5936	171.387	83.6167	171.387	83.6348	171.387	83.6554	171.387	83.6611
177.246	86.5667	177.246	86.4986	177.246	86.5769	177.246	86.3708	177.246	86.5318	177.246	86.1827	177.246	86.4338	177.246	85.9351	177.246	86.2854	177.246	85.6311	177.246	86.0889	177.246	85.2778	177.246	85.8466	177.246	84.8878	177.246	85.5626	177.246	84.4811	177.246	85.2438	177.246	84.0867	177.246	84.9027	177.246	83.7405	177.246	84.5587	177.246	83.4778	177.246	84.2379	177.246	83.3227	177.246	83.9687	177.246	83.2769	177.246	83.7741	177.246	83.3183	177.246	83.6622	177.246	83.4092	177.246	83.6214	177.246	83.5098	177.246	83.6244	177.246	83.5892	177.246	83.6375	177.246	83.6315
183.105	86.8029	183.105	86.7834	183.105	86.7665	183.105	86.7044	183.105	86.6781	183.105	86.5624	183.105	86.5414	183.105	86.3543	183.105	86.3604	183.105	86.0784	183.105	86.1396	183.105	85.7361	183.105	85.8847	183.105	85.3343	183.105	85.6037	183.105	84.8891	183.105	85.308	183.105	84.4289	183.105	85.0131	183.105	83.996	183.105	84.738	183.105	83.6411	183.105	84.5022	183.105	83.4096	183.105	84.3214	183.105	83.3228	183.105	84.2012	183.105	83.3666	183.105	84.1346	183.105	83.499	183.105	84.102	183.105	83.6677	183.105	84.0772	183.105	83.8284	183.105	84.0342	183.105	83.9536
188.965	86.9087	188.965	86.872	188.965	86.8805	188.965	86.7698	188.965	86.7883	188.965	86.6016	188.965	86.6331	188.965	86.3678	188.965	86.4164	188.965	86.0698	188.965	86.1413	188.965	85.7111	188.965	85.8138	188.965	85.2985	188.965	85.4453	188.965	84.8452	188.965	85.0543	188.965	84.3743	188.965	84.6682	188.965	83.9229	188.965	84.3214	188.965	83.5408	188.965	84.0494	188.965	83.2795	188.965	83.8769	188.965	83.1721	188.965	83.8072	188.965	83.2141	188.965	83.8184	188.965	83.3626	188.965	83.8702	188.965	83.5558	188.965	83.9179	188.965	83.7363	188.965	83.9237	188.965	83.8646
196.289	86.7301	196.289	86.7254	196.289	86.6668	196.289	86.652	196.289	86.5377	196.289	86.5107	196.289	86.3468	196.289	86.3027	196.289	86.1004	196.289	86.0304	196.289	85.8067	196.289	85.697	196.289	85.4755	196.289	85.3082	196.289	85.1185	196.289	84.8749	196.289	84.7498	196.289	84.4159	196.289	84.387	196.289	83.9622	196.289	84.0528	196.289	83.5568	196.289	83.7736	196.289	83.2487	196.289	83.5741	196.289	83.0756	196.289	83.4675	196.289	83.0454	196.289	83.4463	196.289	83.1281	196.289	83.4806	196.289	83.2691	196.289	83.5277	196.289	83.4104	196.289	83.5465	196.289	83.5093
203.613	86.2843	203.613	86.2744	203.613	86.2151	203.613	86.183	203.613	86.0698	203.613	86.0087	203.613	85.8526	203.613	85.7509	203.613	85.5692	203.613	85.4107	203.613	85.2277	203.613	84.9922	203.613	84.8402	203.613	84.5038	203.613	84.4237	203.613	83.9619	203.613	84.0008	203.613	83.3953	203.613	83.5996	203.613	82.8502	203.613	83.2519	203.613	82.3901	203.613	82.9878	203.613	82.0833	203.613	82.8282	203.613	81.9745	203.613	82.7758	203.613	82.0563	203.613	82.8097	203.613	82.2692	203.613	82.8888	203.613	82.5296	203.613	82.9622	203.613	82.7625	203.613	82.9832	203.613	82.9198
210.938	86.518	210.938	86.492	210.938	86.4718	210.938	86.4052	210.938	86.3432	210.938	86.2687	210.938	86.1237	210.938	86.0909	210.938	85.8074	210.938	85.8755	210.938	85.3915	210.938	85.6203	210.938	84.8763	210.938	85.3167	210.938	84.2683	210.938	84.9532	210.938	83.5838	210.938	84.5205	210.938	82.8565	210.938	84.0191	210.938	82.1457	210.938	83.469	210.938	81.538	210.938	82.916	210.938	81.1278	210.938	82.4285	210.938	80.97	210.938	82.0739	210.938	81.0408	210.938	81.8812	210.938	81.2489	210.938	81.8187	210.938	81.4874	210.938	81.8115	210.938	81.6766	210.938	81.7813
218.262	86.1791	218.262	86.1044	218.262	86.1852	218.262	85.9685	218.262	86.1204	218.262	85.7839	218.262	85.9861	218.262	85.5664	218.262	85.7856	218.262	85.3315	218.262	85.5225	218.262	85.0897	218.262	85.1996	218.262	84.8431	218.262	84.819	218.262	84.5847	218.262	84.3842	218.262	84.3024	218.262	83.903	218.262	83.9861	218.262	83.3928	218.262	83.636	218.262	82.8853	218.262	83.2689	218.262	82.4274	218.262	82.917	218.262	82.0724	218.262	82.6173	218.262	81.8596	218.262	82.3934	218.262	81.792	218.262	82.241	218.262	81.833	218.262	82.1319	218.262	81.928	218.262	82.0327
225.586	86.4909	225.586	86.3616	225.586	86.5027	225.586	86.1136	225.586	86.403	225.586	85.7526	225.586	86.2014	225.586	85.2948	225.586	85.9102	225.586	84.7708	225.586	85.5441	225.586	84.2274	225.586	85.1197	225.586	83.7231	225.586	84.6555	225.586	83.3124	225.586	84.1704	225.586	83.0233	225.586	83.6829	225.586	82.8449	225.586	83.2109	225.586	82.738	225.586	82.7737	225.586	82.6583	225.586	82.394	225.586	82.5758	225.586	82.0975	225.586	82.4791	225.586	81.9048	225.586	82.3697	225.586	81.8212	225.586	82.2528	225.586	81.8314	225.586	82.1326	225.586	81.9057	225.586	82.0133
232.91	87.5236	232.91	87.3287	232.91	87.6055	232.91	87.0148	232.91	87.576	232.91	86.5736	232.91	87.432	232.91	85.9971	232.91	87.1661	232.91	85.2805	232.91	86.77	232.91	84.4265	232.91	86.2385	232.91	83.451	232.91	85.5755	232.91	82.3946	232.91	84.8001	232.91	81.3398	232.91	83.954	232.91	80.4262	232.91	83.106	232.91	79.8289	232.91	82.35	232.91	79.6623	232.91	81.7825	232.91	79.8839	232.91	81.4629	232.91	80.3274	232.91	81.3791	232.91	80.8183	232.91	81.4538	232.91	81.2392	232.91	81.5844	232.91	81.5305	232.91	81.6793	232.91	81.6737
241.699	86.9432	241.699	86.8014	241.699	86.9905	241.699	86.5644	241.699	86.9467	241.699	86.235	241.699	86.8161	241.699	85.821	241.699	86.6026	241.699	85.3358	241.699	86.3074	241.699	84.7987	241.699	85.927	241.699	84.2331	241.699	85.4515	241.699	83.6632	241.699	84.8652	241.699	83.1113	241.699	84.1501	241.699	82.5951	241.699	83.2958	241.699	82.13	241.699	82.3186	241.699	81.7316	241.699	81.2923	241.699	81.416	241.699	80.3771	241.699	81.1904	241.699	79.788	241.699	81.0397	241.699	79.6464	241.699	80.92	241.699	79.8585	241.699	80.7702	241.699	80.2113	241.699	80.5375
250.488	87.5137	250.488	87.3217	250.488	87.5571	250.488	86.9768	250.488	87.4633	250.488	86.4809	250.488	87.2526	250.488	85.8416	250.488	86.9554	250.488	85.0723	250.488	86.611	250.488	84.193	250.488	86.26	250.488	83.2315	250.488	85.9302	250.488	82.2238	250.488	85.6208	250.488	81.2111	250.488	85.2955	250.488	80.2328	250.488	84.8909	250.488	79.3203	250.488	84.3339	250.488	78.4995	250.488	83.5595	250.488	77.7981	250.488	82.525	250.488	77.2395	250.488	81.2293	250.488	76.8234	250.488	79.7458	250.488	76.5285	250.488	78.2695	250.488	76.3731	250.488	77.1084	250.488	76.4943
259.277	89.9124	259.277	90.0089	259.277	89.6447	259.277	89.9318	259.277	89.2067	259.277	89.6762	259.277	88.6013	259.277	89.2335	259.277	87.8378	259.277	88.5918	259.277	86.9406	259.277	87.7386	259.277	85.9633	259.277	86.6665	259.277	85.0069	259.277	85.3836	259.277	84.2191	259.277	83.93	259.277	83.7326	259.277	82.3953	259.277	83.5576	259.277	80.9216	259.277	83.5569	259.277	79.6673	259.277	83.5432	259.277	78.7417	259.277	83.3738	259.277	78.1819	259.277	82.9765	259.277	77.9945	259.277	82.3385	259.277	78.1858	259.277	81.4961	259.277	78.7352	259.277	80.5299	259.277	79.5611
268.066	89.9777	268.066	90.1016	268.066	89.7792	268.066	90.1437	268.066	89.5062	268.066	90.0925	268.066	89.1507	268.066	89.9335	268.066	88.6972	268.066	89.6525	268.066	88.127	268.066	89.2391	268.066	87.4299	268.066	88.6921	268.066	86.6228	268.066	88.0266	268.066	85.7745	268.066	87.2823	268.066	85.0217	268.066	86.5276	268.066	84.5359	268.066	85.8516	268.066	84.4146	268.066	85.3383	268.066	84.5952	268.066	85.0311	268.066	84.9131	268.066	84.9175	268.066	85.2174	268.066	84.9478	268.066	85.4236	268.066	85.0646	268.066	85.5063	268.066	85.2188	268.066	85.4779	268.066	85.3695
276.855	88.5098	276.855	88.4839	276.855	88.4698	276.855	88.3815	276.855	88.3622	276.855	88.1823	276.855	88.172	276.855	87.8609	276.855	87.8717	276.855	87.3917	276.855	87.4266	276.855	86.7551	276.855	86.8027	276.855	85.9463	276.855	85.982	276.855	84.9884	276.855	84.9881	276.855	83.9557	276.855	83.9326	276.855	83	276.855	83.059	276.855	82.3412	276.855	82.6742	276.855	82.156	276.855	82.8836	276.855	82.4296	276.855	83.4678	276.855	82.9781	276.855	84.1201	276.855	83.6046	276.855	84.6449	276.855	84.181	276.855	84.9621	276.855	84.6394	276.855	85.0563	276.855	84.9408
287.109	88.3286	287.109	88.298	287.109	88.3096	287.109	88.2246	287.109	88.2237	287.109	88.1056	287.109	88.0446	287.109	87.9304	287.109	87.741	287.109	87.6808	287.109	87.284	287.109	87.331	287.109	86.6578	287.109	86.8479	287.109	85.8747	287.109	86.1961	287.109	84.9957	287.109	85.3501	287.109	84.1472	287.109	84.3177	287.109	83.5018	287.109	83.1755	287.109	83.1857	287.109	82.1048	287.109	83.1761	287.109	81.3654	287.109	83.3237	287.109	81.133	287.109	83.4675	287.109	81.3466	287.109	83.506	287.109	81.7979	287.109	83.3998	287.109	82.3075	287.109	83.1494	287.109	82.7749
297.363	88.0181	297.363	87.9929	297.363	88.015	297.363	87.9562	297.363	87.9609	297.363	87.9151	297.363	87.8301	297.363	87.863	297.363	87.5936	297.363	87.7777	297.363	87.218	297.363	87.6259	297.363	86.6629	297.363	87.3711	297.363	85.8782	297.363	86.9856	297.363	84.8061	297.363	86.4624	297.363	83.3941	297.363	85.8262	297.363	81.6523	297.363	85.1396	297.363	79.8416	297.363	84.4974	297.363	78.7638	297.363	83.9992	297.363	79.1495	297.363	83.703	297.363	80.411	297.363	83.5926	297.363	81.6707	297.363	83.5891	297.363	82.6035	297.363	83.5879	297.363	83.1866	297.363	83.4856
307.617	87.3699	307.617	87.3732	307.617	87.3816	307.617	87.3832	307.617	87.4067	307.617	87.3844	307.617	87.4301	307.617	87.3561	307.617	87.422	307.617	87.2746	307.617	87.341	307.617	87.1149	307.617	87.1399	307.617	86.8547	307.617	86.7754	307.617	86.4796	307.617	86.2182	307.617	85.9898	307.617	85.4673	307.617	85.4097	307.617	84.5711	307.617	84.7978	307.617	83.6577	307.617	84.2474	307.617	82.9396	307.617	83.8616	307.617	82.6209	307.617	83.6972	307.617	82.7274	307.617	83.7228	307.617	83.0851	307.617	83.8392	307.617	83.4817	307.617	83.9365	307.617	83.7817	307.617	83.9322
319.336	86.1126	319.336	86.1096	319.336	86.1116	319.336	86.1088	319.336	86.095	319.336	86.1071	319.336	86.0471	319.336	86.0895	319.336	85.9477	319.336	86.0282	319.336	85.7717	319.336	85.8858	319.336	85.4878	319.336	85.6228	319.336	85.0609	319.336	85.2085	319.336	84.4584	319.336	84.6387	319.336	83.6658	319.336	83.9597	319.336	82.722	319.336	83.2929	319.336	81.781	319.336	82.8239	319.336	81.1514	319.336	82.7033	319.336	81.1325	319.336	82.9178	319.336	81.6836	319.336	83.3032	319.336	82.4662	319.336	83.674	319.336	83.179	319.336	83.9016	319.336	83.6758	319.336	83.9143
329.59	86.9564	329.59	86.8934	329.59	86.9835	329.59	86.8108	329.59	86.9573	329.59	86.718	329.59	86.8606	329.59	86.6102	329.59	86.6746	329.59	86.4637	329.59	86.3746	329.59	86.239	329.59	85.9279	329.59	85.8906	329.59	85.2924	329.59	85.383	329.59	84.4211	329.59	84.708	329.59	83.2735	329.59	83.904	329.59	81.8532	329.59	83.078	329.59	80.3152	329.59	82.4114	329.59	79.1582	329.59	82.0955	329.59	79.0688	329.59	82.1894	329.59	80.0002	329.59	82.5561	329.59	81.2308	329.59	82.9716	329.59	82.2679	329.59	83.2485	329.59	82.9513	329.59	83.2657
341.309	87.5819	341.309	87.4742	341.309	87.6392	341.309	87.2987	341.309	87.6574	341.309	87.0376	341.309	87.638	341.309	86.68	341.309	87.5728	341.309	86.2286	341.309	87.4471	341.309	85.7025	341.309	87.244	341.309	85.1354	341.309	86.9481	341.309	84.5671	341.309	86.5469	341.309	84.0293	341.309	86.0322	341.309	83.5357	341.309	85.4009	341.309	83.0829	341.309	84.6613	341.309	82.665	341.309	83.8443	341.309	82.2893	341.309	83.0194	341.309	81.9803	341.309	82.2971	341.309	81.7618	341.309	81.7898	341.309	81.6321	341.309	81.5371	341.309	81.5586	341.309	81.4768	341.309	81.5058
353.027	86.9269	353.027	86.6763	353.027	87.104	353.027	86.3622	353.027	87.1933	353.027	85.9922	353.027	87.1733	353.027	85.5703	353.027	87.0143	353.027	85.0928	353.027	86.6799	353.027	84.5409	353.027	86.1315	353.027	83.8764	353.027	85.3389	353.027	83.0558	353.027	84.3018	353.027	82.0822	353.027	83.0964	353.027	81.1036	353.027	81.9549	353.027	80.4869	353.027	81.2826	353.027	80.5873	353.027	81.3632	353.027	81.304	353.027	82.0104	353.027	82.222	353.027	82.8146	353.027	83.0446	353.027	83.5055	353.027	83.6634	353.027	83.9815	353.027	84.0629	353.027	84.2263	353.027	84.2502
366.211	87.4337	366.211	87.3739	366.211	87.5415	366.211	87.3768	366.211	87.6603	366.211	87.4322	366.211	87.7344	366.211	87.5025	366.211	87.6978	366.211	87.5211	366.211	87.4857	366.211	87.3988	366.211	87.0452	366.211	87.0391	366.211	86.3403	366.211	86.3586	366.211	85.3474	366.211	85.3118	366.211	84.048	366.211	83.9285	366.211	82.4448	366.211	82.3841	366.211	80.6601	366.211	81.0676	366.211	79.1669	366.211	80.4249	366.211	78.7292	366.211	80.5059	366.211	79.3845	366.211	80.9458	366.211	80.3677	366.211	81.4035	366.211	81.1632	366.211	81.7131	366.211	81.6376	366.211	81.806
379.395	83.4034	379.395	83.3982	379.395	83.5447	379.395	83.5535	379.395	83.837	379.395	83.9059	379.395	84.2967	379.395	84.4322	379.395	84.8907	379.395	85.0151	379.395	85.5281	379.395	85.4908	379.395	86.0925	379.395	85.716	379.395	86.4691	379.395	85.5995	379.395	86.5506	379.395	85.1014	379.395	86.2378	379.395	84.2313	379.395	85.4495	379.395	83.0911	379.395	84.1688	379.395	82.0152	379.395	82.6049	379.395	81.648	379.395	81.5257	379.395	82.3319	379.395	81.8555	379.395	83.5491	379.395	83.1599	379.395	84.6624	379.395	84.4454	379.395	85.3753	379.395	85.2849	379.395	85.5932
392.578	87.0178	392.578	86.879	392.578	87.0362	392.578	86.6289	392.578	86.9403	392.578	86.2971	392.578	86.7473	392.578	85.9346	392.578	86.483	392.578	85.5998	392.578	86.1739	392.578	85.3276	392.578	85.8332	392.578	85.0951	392.578	85.444	392.578	84.8103	392.578	84.9543	392.578	84.3347	392.578	84.2824	392.578	83.5276	392.578	83.331	392.578	82.3086	392.578	82.0173	392.578	80.7852	392.578	80.3769	392.578	79.5115	392.578	78.867	392.578	79.3647	392.578	78.5296	392.578	80.2958	392.578	79.5842	392.578	81.409	392.578	80.9603	392.578	82.1504	392.578	81.9431	392.578	82.3441
405.762	86.178	405.762	85.9971	405.762	86.3051	405.762	85.7762	405.762	86.3879	405.762	85.558	405.762	86.4467	405.762	85.4051	405.762	86.4976	405.762	85.365	405.762	86.5405	405.762	85.4256	405.762	86.5528	405.762	85.5019	405.762	86.4915	405.762	85.4717	405.762	86.3002	405.762	85.2268	405.762	85.9206	405.762	84.7041	405.762	85.3146	405.762	83.9017	405.762	84.5003	405.762	82.9099	405.762	83.6031	405.762	81.9749	405.762	82.8823	405.762	81.4872	405.762	82.6037	405.762	81.6678	405.762	82.7728	405.762	82.278	405.762	83.117	405.762	82.9046	405.762	83.3444	405.762	83.2878
420.41	86.253	420.41	86.2246	420.41	86.1731	420.41	86.1108	420.41	85.9903	420.41	85.9534	420.41	85.7394	420.41	85.7959	420.41	85.4722	420.41	85.6584	420.41	85.2298	420.41	85.5174	420.41	85.01	420.41	85.3057	420.41	84.7511	420.41	84.9398	420.41	84.3454	420.41	84.3531	420.41	83.6717	420.41	83.5216	420.41	82.6339	420.41	82.4864	420.41	81.2163	420.41	81.3985	420.41	79.6251	420.41	80.5654	420.41	78.5219	420.41	80.3273	420.41	78.6573	420.41	80.6975	420.41	79.7161	420.41	81.3142	420.41	80.8501	420.41	81.8001	420.41	81.6262	420.41	81.9367
435.059	86.0271	435.059	85.8562	435.059	86.0646	435.059	85.5451	435.059	86.0057	435.059	85.1228	435.059	85.9069	435.059	84.6526	435.059	85.8245	435.059	84.2113	435.059	85.786	435.059	83.8484	435.059	85.7654	435.059	83.5545	435.059	85.6827	435.059	83.2698	435.059	85.428	435.059	82.9175	435.059	84.8968	435.059	82.4337	435.059	84.0217	435.059	81.8065	435.059	82.8177	435.059	81.1466	435.059	81.4832	435.059	80.7277	435.059	80.5194	435.059	80.8189	435.059	80.4508	435.059	81.3658	435.059	81.1235	435.059	82.0386	435.059	81.9414	435.059	82.5422	435.059	82.5178	435.059	82.7215
451.172	86.3691	451.172	86.2629	451.172	86.2504	451.172	85.9257	451.172	85.9378	451.172	85.3773	451.172	85.4951	451.172	84.6768	451.172	85.027	451.172	83.9353	451.172	84.6582	451.172	83.2861	451.172	84.4612	451.172	82.7861	451.172	84.3786	451.172	82.343	451.172	84.2295	451.172	81.7867	451.172	83.78	451.172	81.0089	451.172	82.7915	451.172	80.0714	451.172	81.0349	451.172	79.3158	451.172	78.422	451.172	79.2947	451.172	76.0643	451.172	80.1503	451.172	76.9934	451.172	81.3632	451.172	79.5993	451.172	82.412	451.172	81.5881	451.172	83.0526	451.172	82.7373	451.172	83.1869
465.82	88.1843	465.82	88.0749	465.82	88.1151	465.82	87.7614	465.82	87.8874	465.82	87.2178	465.82	87.5202	465.82	86.4335	465.82	87.044	465.82	85.4339	465.82	86.5156	465.82	84.2934	465.82	86.0166	465.82	83.1152	465.82	85.6074	465.82	81.9622	465.82	85.2524	465.82	80.7757	465.82	84.801	465.82	79.3826	465.82	84.0442	465.82	77.6748	465.82	82.7704	465.82	76.1291	465.82	80.7948	465.82	76.2028	465.82	78.1408	465.82	77.9671	465.82	76.0691	465.82	79.8511	465.82	76.9604	465.82	81.147	465.82	79.1642	465.82	81.749	465.82	80.8108	465.82	81.6509
483.398	86.8373	483.398	86.8354	483.398	86.7317	483.398	86.7255	483.398	86.5329	483.398	86.5209	483.398	86.2658	483.398	86.2471	483.398	85.9617	483.398	85.935	483.398	85.6556	483.398	85.6039	483.398	85.3819	483.398	85.2398	483.398	85.1569	483.398	84.7819	483.398	84.953	483.398	84.1336	483.398	84.6924	483.398	83.1862	483.398	84.2686	483.398	81.8296	483.398	83.5747	483.398	79.9438	483.398	82.525	483.398	77.4257	483.398	81.0833	483.398	74.4954	483.398	79.3363	483.398	72.7162	483.398	77.6301	483.398	73.4925	483.398	76.5166	483.398	74.9084	483.398	76.0918	483.398	75.7504
499.512	85.6893	499.512	85.7035	499.512	85.556	499.512	85.6259	499.512	85.2985	499.512	85.496	499.512	84.9469	499.512	85.3512	499.512	84.5766	499.512	85.2121	499.512	84.2963	499.512	85.0705	499.512	84.1871	499.512	84.8869	499.512	84.2258	499.512	84.5956	499.512	84.2775	499.512	84.1088	499.512	84.1707	499.512	83.3227	499.512	83.7691	499.512	82.1365	499.512	83.0099	499.512	80.5161	499.512	81.9506	499.512	78.7007	499.512	80.8582	499.512	77.5567	499.512	80.2065	499.512	77.9155	499.512	80.246	499.512	79.1111	499.512	80.6455	499.512	80.1876	499.512	80.9224	499.512	80.8027
517.09	86.3415	517.09	86.1102	517.09	86.36	517.09	85.6948	517.09	86.1625	517.09	85.168	517.09	85.7634	517.09	84.66	517.09	85.2037	517.09	84.3274	517.09	84.5642	517.09	84.2458	517.09	83.9574	517.09	84.3178	517.09	83.4671	517.09	84.3214	517.09	83.072	517.09	84.0282	517.09	82.6397	517.09	83.2603	517.09	81.9889	517.09	81.8866	517.09	80.9589	517.09	79.8428	517.09	79.5149	517.09	77.4071	517.09	78.0442	517.09	76.0959	517.09	77.621	517.09	77.2635	517.09	78.6317	517.09	79.1546	517.09	79.9791	517.09	80.4876	517.09	80.8621	517.09	81.0509
536.133	86.5748	536.133	86.3482	536.133	86.5816	536.133	85.8898	536.133	86.3968	536.133	85.2199	536.133	86.0665	536.133	84.4324	536.133	85.6605	536.133	83.7337	536.133	85.2641	536.133	83.3761	536.133	84.9392	536.133	83.431	536.133	84.6735	536.133	83.6856	536.133	84.3652	536.133	83.8224	536.133	83.8563	536.133	83.5749	536.133	82.9745	536.133	82.7506	536.133	81.5565	536.133	81.254	536.133	79.5198	536.133	79.283	536.133	77.2875	536.133	77.8776	536.133	76.634	536.133	78.3002	536.133	78.1687	536.133	79.687	536.133	79.9196	536.133	80.7993	536.133	80.9785	536.133	81.2569
555.176	87.1276	555.176	86.9432	555.176	87.0042	555.176	86.4423	555.176	86.5828	555.176	85.6187	555.176	85.8931	555.176	84.4936	555.176	85.018	555.176	83.1711	555.176	84.1255	555.176	81.909	555.176	83.4388	555.176	81.0696	555.176	83.0822	555.176	80.7948	555.176	82.9328	555.176	80.7997	555.176	82.694	555.176	80.662	555.176	82.0647	555.176	80.1081	555.176	80.814	555.176	79.1058	555.176	78.8542	555.176	78.0339	555.176	76.7085	555.176	77.7706	555.176	76.3031	555.176	78.6612	555.176	77.9854	555.176	79.9088	555.176	79.7461	555.176	80.8201	555.176	80.8136	555.176	81.1499
574.219	88.014	574.219	87.8289	574.219	87.8721	574.219	87.3075	574.219	87.411	574.219	86.4414	574.219	86.6501	574.219	85.2477	574.219	85.6443	574.219	83.8259	574.219	84.5289	574.219	82.4223	574.219	83.5691	574.219	81.3699	574.219	83.0551	574.219	80.7845	574.219	82.9468	574.219	80.3662	574.219	82.8023	574.219	79.5927	574.219	82.1355	574.219	77.9157	574.219	80.5633	574.219	74.8814	574.219	77.6621	574.219	71.9847	574.219	72.9313	574.219	74.4504	574.219	70.5314	574.219	77.8479	574.219	75.0055	574.219	79.8861	574.219	78.2834	574.219	80.8131	574.219	80.0787	574.219	80.8629
594.727	87.9002	594.727	87.7463	594.727	87.8146	594.727	87.3279	594.727	87.4845	594.727	86.5962	594.727	86.8919	594.727	85.5077	594.727	86.0336	594.727	84.0754	594.727	84.9512	594.727	82.4561	594.727	83.7674	594.727	81.0712	594.727	82.7292	594.727	80.4522	594.727	82.1158	594.727	80.4751	594.727	81.8649	594.727	80.2967	594.727	81.4597	594.727	79.1079	594.727	80.2642	594.727	76.1159	594.727	77.5724	594.727	69.4071	594.727	72.1299	594.727	65.612	594.727	68.4524	594.727	74.1878	594.727	75.0747	594.727	77.9944	594.727	78.6461	594.727	79.867	594.727	80.2341	594.727	80.5675
615.234	87.6018	615.234	87.5681	615.234	87.4743	615.234	87.336	615.234	87.2049	615.234	86.8573	615.234	86.7938	615.234	86.0966	615.234	86.2192	615.234	85.0722	615.234	85.4484	615.234	83.8999	615.234	84.4883	615.234	82.8153	615.234	83.467	615.234	82.1145	615.234	82.6496	615.234	81.8699	615.234	82.2299	615.234	81.6774	615.234	82.0507	615.234	80.9279	615.234	81.6639	615.234	79.0756	615.234	80.5399	615.234	75.3605	615.234	78.0264	615.234	67.0356	615.234	72.697	615.234	64.7496	615.234	59.3484	615.234	73.5128	615.234	71.3528	615.234	76.5957	615.234	75.9205	615.234	77.2902
637.207	86.4904	637.207	86.3316	637.207	86.5027	637.207	86.0439	637.207	86.3705	637.207	85.6665	637.207	86.1097	637.207	85.2523	637.207	85.7441	637.207	84.844	637.207	85.2951	637.207	84.4485	637.207	84.7719	637.207	84.0434	637.207	84.1738	637.207	83.6182	637.207	83.5186	637.207	83.1832	637.207	82.8624	637.207	82.6786	637.207	82.2335	637.207	81.8708	637.207	81.5033	637.207	80.3706	637.207	80.3537	637.207	77.6753	637.207	78.3339	637.207	73.0157	637.207	74.8164	637.207	66.5857	637.207	69.2029	637.207	69.3648	637.207	68.1131	637.207	72.7589	637.207	72.0052	637.207	73.5316
659.18	87.0502	659.18	86.8936	659.18	86.983	659.18	86.5423	659.18	86.6844	659.18	86.0378	659.18	86.1733	659.18	85.4281	659.18	85.5012	659.18	84.7711	659.18	84.7688	659.18	84.1418	659.18	84.1342	659.18	83.6336	659.18	83.7498	659.18	83.2995	659.18	83.6343	659.18	83.0136	659.18	83.6074	659.18	82.4788	659.18	83.3608	659.18	81.4165	659.18	82.5646	659.18	79.6159	659.18	80.8991	659.18	76.7495	659.18	77.9986	659.18	72.086	659.18	73.6009	659.18	66.9438	659.18	70.9802	659.18	71.218	659.18	73.8506	659.18	74.9119	659.18	75.9968	659.18	76.3491
682.617	87.633	682.617	87.3872	682.617	87.4818	682.617	86.7425	682.617	86.9085	682.617	85.6631	682.617	85.9056	682.617	84.1066	682.617	84.5506	682.617	82.1228	682.617	83.0764	682.617	80.2098	682.617	81.9785	682.617	79.6926	682.617	81.953	682.617	80.8999	682.617	82.9174	682.617	82.4182	682.617	83.8921	682.617	83.3713	682.617	84.23	682.617	83.4607	682.617	83.7495	682.617	82.5056	682.617	82.385	682.617	80.3395	682.617	80.0416	682.617	77.0091	682.617	76.8969	682.617	74.3818	682.617	74.9515	682.617	75.5214	682.617	76.1596	682.617	77.3989	682.617	77.7096	682.617	78.1735
707.52	87.0973	707.52	86.9812	707.52	86.9997	707.52	86.6518	707.52	86.6948	707.52	86.0835	707.52	86.2027	707.52	85.2154	707.52	85.5071	707.52	83.9857	707.52	84.4861	707.52	82.3741	707.52	82.9392	707.52	80.4292	707.52	80.8118	707.52	78.4754	707.52	78.8114	707.52	77.5157	707.52	78.5174	707.52	77.8925	707.52	79.4846	707.52	78.2333	707.52	80.0251	707.52	77.4914	707.52	79.3974	707.52	75.1223	707.52	77.1507	707.52	70.6079	707.52	72.5231	707.52	68.9197	707.52	68.5375	707.52	73.6963	707.52	73.4744	707.52	76.5921	707.52	76.5973	707.52	77.496
732.422	85.6512	732.422	85.5631	732.422	85.5827	732.422	85.3413	732.422	85.3577	732.422	85.0065	732.422	85.0011	732.422	84.5487	732.422	84.5245	732.422	83.9147	732.422	83.8563	732.422	83.0023	732.422	82.8163	732.422	81.6844	732.422	81.2322	732.422	80.0371	732.422	79.2782	732.422	78.838	732.422	77.9566	732.422	78.8268	732.422	78.1117	732.422	79.1204	732.422	78.7328	732.422	78.735	732.422	78.6748	732.422	77.3328	732.422	77.4374	732.422	74.786	732.422	74.7062	732.422	71.4097	732.422	70.4264	732.422	69.7162	732.422	68.0959	732.422	70.8458	732.422	70.2592	732.422	71.4502
757.324	86.0956	757.324	86.0935	757.324	86.0012	757.324	85.9695	757.324	85.8274	757.324	85.681	757.324	85.5842	757.324	85.2025	757.324	85.2448	757.324	84.5895	757.324	84.729	757.324	83.9297	757.324	83.9441	757.324	83.1209	757.324	82.8444	757.324	81.9563	757.324	81.4506	757.324	80.589	757.324	79.8965	757.324	79.34	757.324	78.5389	757.324	77.9664	757.324	77.592	757.324	76.0135	757.324	76.4303	757.324	73.1088	757.324	73.9795	757.324	68.5119	757.324	69.2857	757.324	64.8391	757.324	67.3873	757.324	69.7776	757.324	72.0239	757.324	73.3989	757.324	74.5027	757.324	74.8717
785.156	85.3846	785.156	85.4072	785.156	85.1498	785.156	85.1856	785.156	84.7944	785.156	84.7692	785.156	84.4235	785.156	84.2873	785.156	84.0745	785.156	83.868	785.156	83.6852	785.156	83.5142	785.156	83.1969	785.156	83.1693	785.156	82.6912	785.156	82.8607	785.156	82.3447	785.156	82.6206	785.156	82.1852	785.156	82.386	785.156	81.9653	785.156	81.9491	785.156	81.3394	785.156	80.8589	785.156	80.0334	785.156	78.4485	785.156	77.7568	785.156	73.6517	785.156	73.8335	785.156	63.982	785.156	66.0936	785.156	68.0263	785.156	64.4857	785.156	72.4394	785.156	71.1497	785.156	73.2025
811.523	87.8892	811.523	87.9335	811.523	87.4919	811.523	87.5819	811.523	86.8142	811.523	86.8397	811.523	85.9567	811.523	85.7923	811.523	85.0192	811.523	84.5806	811.523	84.0456	811.523	83.2735	811.523	83.0342	811.523	81.8634	811.523	82.1337	811.523	80.7791	811.523	81.8527	811.523	81.0482	811.523	82.5022	811.523	82.4305	811.523	83.4473	811.523	83.5	811.523	83.8295	811.523	83.2853	811.523	83.1136	811.523	81.2858	811.523	80.8591	811.523	76.8283	811.523	76.3157	811.523	67.2939	811.523	69.6969	811.523	68.9788	811.523	72.7815	811.523	74.7165	811.523	75.9586	811.523	76.4895
840.82	88.0348	840.82	87.9768	840.82	87.8397	840.82	87.7313	840.82	87.3774	840.82	87.3345	840.82	86.7288	840.82	86.7282	840.82	86.0173	840.82	85.7699	840.82	85.2371	840.82	84.3063	840.82	84.1521	840.82	82.2341	840.82	82.5103	840.82	79.7293	840.82	80.5441	840.82	78.4093	840.82	79.5358	840.82	79.8978	840.82	80.3276	840.82	81.7529	840.82	81.4656	840.82	82.3257	840.82	81.6537	840.82	81.1071	840.82	80.3209	840.82	77.4841	840.82	76.93	840.82	71.6952	840.82	71.8231	840.82	74.2258	840.82	73.7876	840.82	77.7051	840.82	77.3928	840.82	78.6184
870.117	88.6865	870.117	88.5257	870.117	88.4274	870.117	87.9453	870.117	87.8122	870.117	87.0468	870.117	86.9347	870.117	86.0386	870.117	85.9078	870.117	85.1076	870.117	84.8508	870.117	84.1449	870.117	83.7832	870.117	82.6626	870.117	82.5238	870.117	80.0794	870.117	80.8593	870.117	76.4195	870.117	79.2136	870.117	75.781	870.117	79.2386	870.117	78.9794	870.117	80.7198	870.117	80.8366	870.117	81.5914	870.117	80.604	870.117	80.9093	870.117	78.1043	870.117	78.0794	870.117	72.3013	870.117	71.8207	870.117	66.6644	870.117	68.2253	870.117	72.8119	870.117	73.5745	870.117	74.9013
900.879	88.7984	900.879	88.4963	900.879	88.6448	900.879	87.797	900.879	88.0995	900.879	86.8629	900.879	87.3595	900.879	85.9623	900.879	86.5966	900.879	85.3649	900.879	85.7461	900.879	85.0239	900.879	84.6147	900.879	84.3846	900.879	83.1941	900.879	82.7774	900.879	81.7652	900.879	80.0098	900.879	80.7859	900.879	77.3735	900.879	80.7408	900.879	77.4897	900.879	81.3003	900.879	78.9597	900.879	81.5185	900.879	79.0952	900.879	80.6651	900.879	76.6282	900.879	78.0213	900.879	71.1991	900.879	73.1191	900.879	72.5166	900.879	73.2454	900.879	76.6975	900.879	76.9831	900.879	78.0853
933.105	88.6344	933.105	88.2635	933.105	88.5008	933.105	87.4695	933.105	87.8877	933.105	86.4659	933.105	86.9519	933.105	85.5231	933.105	85.9784	933.105	84.6635	933.105	85.1498	933.105	83.5473	933.105	84.2211	933.105	81.9355	933.105	82.5968	933.105	80.1299	933.105	79.8861	933.105	78.6006	933.105	77.3243	933.105	77.5698	933.105	77.8991	933.105	77.8817	933.105	79.6787	933.105	78.9908	933.105	80.351	933.105	79.1041	933.105	79.3535	933.105	77.332	933.105	76.2387	933.105	72.5628	933.105	70.257	933.105	68.0629	933.105	70.2185	933.105	73.5827	933.105	74.6569	933.105	75.7403
965.332	88.0897	965.332	87.6755	965.332	88.0552	965.332	86.9167	965.332	87.563	965.332	85.9786	965.332	86.7131	965.332	85.0402	965.332	85.6924	965.332	84.2263	965.332	84.6839	965.332	83.5266	965.332	83.6984	965.332	82.7218	965.332	82.4786	965.332	81.3613	965.332	80.5884	965.332	79.0358	965.332	77.5242	965.332	76.6294	965.332	74.3025	965.332	77.2425	965.332	76.456	965.332	79.2469	965.332	79.388	965.332	79.9088	965.332	80.1004	965.332	78.3518	965.332	78.4221	965.332	73.6513	965.332	73.6178	965.332	63.6364	965.332	62.3797	965.332	68.1913	965.332	67.7973	965.332	70.8121
1000.49	87.6788	1000.49	87.4438	1000.49	87.482	1000.49	86.7818	1000.49	86.92	1000.49	85.704	1000.49	86.1588	1000.49	84.3677	1000.49	85.2405	1000.49	83.3197	1000.49	84.1384	1000.49	83.098	1000.49	83.1646	1000.49	83.0943	1000.49	82.5932	1000.49	81.9459	1000.49	82.1114	1000.49	79.0015	1000.49	80.6754	1000.49	74.9533	1000.49	77.0804	1000.49	74.2354	1000.49	74.1999	1000.49	76.592	1000.49	77.0007	1000.49	77.4813	1000.49	78.1944	1000.49	76.4112	1000.49	76.413	1000.49	72.6983	1000.49	70.7933	1000.49	69.2859	1000.49	66.8376	1000.49	73.5184	1000.49	73.0934	1000.49	75.0706
1035.64	88.1792	1035.64	88.0427	1035.64	87.9643	1035.64	87.4218	1035.64	87.4769	1035.64	86.199	1035.64	86.6973	1035.64	84.5015	1035.64	85.4324	1035.64	82.8932	1035.64	83.5878	1035.64	81.9586	1035.64	81.7474	1035.64	81.1305	1035.64	80.996	1035.64	79.2199	1035.64	81.2938	1035.64	76.7259	1035.64	81.1767	1035.64	74.8046	1035.64	79.9503	1035.64	74.8429	1035.64	78.5311	1035.64	77.5186	1035.64	78.5715	1035.64	78.2297	1035.64	79.2076	1035.64	75.9733	1035.64	78.0931	1035.64	70.4002	1035.64	73.8931	1035.64	66.9185	1035.64	69.0929	1035.64	72.2016	1035.64	72.6669	1035.64	74.1164
1072.27	87.7712	1072.27	87.5689	1072.27	87.5633	1072.27	86.9871	1072.27	87.0289	1072.27	86.1863	1072.27	86.271	1072.27	85.2036	1072.27	85.3755	1072.27	83.7194	1072.27	84.3126	1072.27	81.6304	1072.27	82.8395	1072.27	80.0692	1072.27	80.7479	1072.27	79.8543	1072.27	78.2336	1072.27	79.5304	1072.27	75.851	1072.27	77.2239	1072.27	74.2521	1072.27	73.493	1072.27	74.9298	1072.27	74.0434	1072.27	76.6027	1072.27	76.0336	1072.27	77.0628	1072.27	75.3257	1072.27	75.5501	1072.27	70.5902	1072.27	71.1643	1072.27	65.9882	1072.27	64.7372	1072.27	71.3782	1072.27	70.0601	1072.27	72.6892
1108.89	88.5888	1108.89	88.5725	1108.89	88.206	1108.89	88.0732	1108.89	87.55	1108.89	87.0212	1108.89	86.786	1108.89	85.554	1108.89	85.8811	1108.89	84.2558	1108.89	84.5596	1108.89	83.5431	1108.89	82.8141	1108.89	82.9959	1108.89	81.1875	1108.89	82.0826	1108.89	79.9693	1108.89	80.5035	1108.89	78.2399	1108.89	77.8217	1108.89	74.9248	1108.89	73.8861	1108.89	72.7011	1108.89	72.7932	1108.89	74.9216	1108.89	74.4251	1108.89	75.9571	1108.89	73.1554	1108.89	74.0081	1108.89	64.5819	1108.89	66.8038	1108.89	66.4106	1108.89	64.8203	1108.89	73.8915	1108.89	72.9539	1108.89	75.2107
1148.44	88.6614	1148.44	88.339	1148.44	88.4548	1148.44	87.5198	1148.44	87.9374	1148.44	86.3855	1148.44	87.461	1148.44	85.2394	1148.44	86.9107	1148.44	84.3948	1148.44	85.773	1148.44	83.9987	1148.44	84.1415	1148.44	83.9834	1148.44	82.7386	1148.44	83.7889	1148.44	81.7313	1148.44	82.7363	1148.44	80.5887	1148.44	80.9157	1148.44	78.4873	1148.44	77.914	1148.44	75.1651	1148.44	74.3094	1148.44	74.2721	1148.44	75.0164	1148.44	76.823	1148.44	75.7948	1148.44	77.1037	1148.44	73.1901	1148.44	73.6436	1148.44	62.4482	1148.44	61.9555	1148.44	65.9033	1148.44	67.4648	1148.44	70.6371
1189.45	88.4922	1189.45	88.1607	1189.45	88.4077	1189.45	87.4878	1189.45	88.0619	1189.45	86.7092	1189.45	87.5472	1189.45	85.9605	1189.45	86.6344	1189.45	84.8358	1189.45	85.2974	1189.45	82.6429	1189.45	83.9282	1189.45	80.1177	1189.45	82.6304	1189.45	79.8534	1189.45	81.0607	1189.45	80.972	1189.45	79.0592	1189.45	81.2285	1189.45	76.2299	1189.45	80.1232	1189.45	74.2938	1189.45	77.8113	1189.45	74.4507	1189.45	76.3462	1189.45	74.8457	1189.45	76.3552	1189.45	74.4879	1189.45	73.6857	1189.45	71.6163	1189.45	61.8004	1189.45	65.4318	1189.45	69.1088	1189.45	69.6531	1189.45	72.4955
1230.47	88.4503	1230.47	88.238	1230.47	88.2182	1230.47	87.5938	1230.47	87.6944	1230.47	86.646	1230.47	86.9715	1230.47	85.4842	1230.47	85.9168	1230.47	84.2741	1230.47	84.3958	1230.47	83.3562	1230.47	82.661	1230.47	82.3113	1230.47	81.7068	1230.47	80.3471	1230.47	82.0041	1230.47	78.6334	1230.47	81.9279	1230.47	78.5497	1230.47	79.773	1230.47	79.003	1230.47	74.7844	1230.47	78.4314	1230.47	71.53	1230.47	77.757	1230.47	74.9847	1230.47	78.0061	1230.47	75.8185	1230.47	76.4472	1230.47	73.4067	1230.47	70.3102	1230.47	66.8921	1230.47	69.5769	1230.47	70.1806	1230.47	72.8979
1274.41	87.6732	1274.41	87.716	1274.41	87.274	1274.41	87.3617	1274.41	86.6757	1274.41	86.4599	1274.41	86.1044	1274.41	85.0269	1274.41	85.379	1274.41	83.809	1274.41	84.1833	1274.41	83.1603	1274.41	82.6652	1274.41	82.19	1274.41	80.6597	1274.41	80.5454	1274.41	78.7664	1274.41	79.0067	1274.41	79.271	1274.41	77.4919	1274.41	79.8929	1274.41	76.3492	1274.41	78.6787	1274.41	76.1783	1274.41	75.1472	1274.41	75.7147	1274.41	74.992	1274.41	75.5159	1274.41	76.2293	1274.41	74.1995	1274.41	73.5696	1274.41	68.7072	1274.41	64.0063	1274.41	68.8368	1274.41	69.4249	1274.41	72.4158
1319.82	87.8643	1319.82	87.727	1319.82	87.6192	1319.82	87.0787	1319.82	87.2257	1319.82	86.0146	1319.82	86.6483	1319.82	84.9237	1319.82	85.6175	1319.82	83.9714	1319.82	84.3137	1319.82	82.7559	1319.82	82.9736	1319.82	81.2887	1319.82	81.2717	1319.82	80.0106	1319.82	79.4358	1319.82	79.3037	1319.82	77.7877	1319.82	78.0792	1319.82	76.1301	1319.82	76.5704	1319.82	75.5474	1319.82	76.8917	1319.82	75.1732	1319.82	76.9114	1319.82	74.6742	1319.82	74.7806	1319.82	74.9773	1319.82	70.8042	1319.82	73.7546	1319.82	63.5683	1319.82	69.1393	1319.82	68.0606	1319.82	69.4744	1319.82	71.4717
1366.7	88.3686	1366.7	88.2196	1366.7	87.8447	1366.7	87.3399	1366.7	87.1353	1366.7	86.2345	1366.7	86.4104	1366.7	85.2279	1366.7	85.4322	1366.7	84.0135	1366.7	84.1349	1366.7	82.8503	1366.7	82.6908	1366.7	81.7517	1366.7	81.6948	1366.7	78.6179	1366.7	81.3425	1366.7	73.7331	1366.7	81.1122	1366.7	73.4869	1366.7	80.1472	1366.7	75.3058	1366.7	77.1832	1366.7	77.0944	1366.7	72.0629	1366.7	77.8611	1366.7	73.6288	1366.7	76.3731	1366.7	75.5686	1366.7	73.2799	1366.7	73.1794	1366.7	69.0559	1366.7	64.6852	1366.7	69.4454	1366.7	71.3146	1366.7	72.9938
1413.57	88.3928	1413.57	88.1053	1413.57	87.9526	1413.57	87.2462	1413.57	87.0309	1413.57	86.1498	1413.57	85.786	1413.57	84.8323	1413.57	84.3305	1413.57	83.7216	1413.57	83.2532	1413.57	82.7111	1413.57	82.5432	1413.57	80.5436	1413.57	80.971	1413.57	79.0944	1413.57	78.5215	1413.57	79.7632	1413.57	76.9457	1413.57	77.7373	1413.57	78.2014	1413.57	71.5782	1413.57	79.7982	1413.57	71.3628	1413.57	77.9471	1413.57	75.4442	1413.57	74.4896	1413.57	75.8346	1413.57	76.0727	1413.57	73.3704	1413.57	74.5377	1413.57	70.5865	1413.57	66.0644	1413.57	71.9423	1413.57	70.5285	1413.57	73.428
1463.38	88.6412	1463.38	88.2145	1463.38	88.2813	1463.38	87.1589	1463.38	87.3685	1463.38	85.8082	1463.38	86.0678	1463.38	84.4662	1463.38	84.6791	1463.38	83.615	1463.38	83.6602	1463.38	82.7644	1463.38	82.3049	1463.38	81.441	1463.38	80.368	1463.38	80.6189	1463.38	79.3222	1463.38	79.615	1463.38	78.9	1463.38	77.9011	1463.38	77.2414	1463.38	74.9799	1463.38	75.267	1463.38	71.9044	1463.38	74.909	1463.38	75.4609	1463.38	74.3743	1463.38	76.0928	1463.38	74.1181	1463.38	72.9142	1463.38	73.6855	1463.38	65.5563	1463.38	67.9187	1463.38	69.3325	1463.38	67.0531	1463.38	71.9946
1516.11	87.9457	1516.11	87.5512	1516.11	87.7532	1516.11	86.8032	1516.11	87.1318	1516.11	85.7498	1516.11	86.2188	1516.11	84.5297	1516.11	85.1195	1516.11	84.1051	1516.11	84.0903	1516.11	83.1213	1516.11	82.9565	1516.11	80.6454	1516.11	81.2517	1516.11	80.1257	1516.11	77.7447	1516.11	80.7398	1516.11	72.8061	1516.11	78.8286	1516.11	76.4119	1516.11	74.7189	1516.11	78.787	1516.11	67.2565	1516.11	76.8946	1516.11	72.2914	1516.11	74.8098	1516.11	76.0136	1516.11	74.6744	1516.11	74.2852	1516.11	72.6276	1516.11	67.8842	1516.11	63.1203	1516.11	69.165	1516.11	68.9972	1516.11	72.5565
1568.85	87.4968	1568.85	87.643	1568.85	86.941	1568.85	86.8197	1568.85	86.5353	1568.85	85.267	1568.85	86.0134	1568.85	84.6455	1568.85	85.2318	1568.85	84.5099	1568.85	84.3523	1568.85	82.409	1568.85	82.4929	1568.85	80.2225	1568.85	80.7684	1568.85	79.4756	1568.85	80.6887	1568.85	79.0965	1568.85	79.7425	1568.85	79.9729	1568.85	75.1329	1568.85	79.7886	1568.85	69.062	1568.85	75.5604	1568.85	75.2273	1568.85	70.0831	1568.85	75.237	1568.85	74.2291	1568.85	74.1838	1568.85	73.1346	1568.85	72.9864	1568.85	68.5476	1568.85	66.6141	1568.85	70.5291	1568.85	69.3925	1568.85	72.3761
1624.51	87.4528	1624.51	87.4699	1624.51	87.2324	1624.51	87.0289	1624.51	86.9642	1624.51	86.3574	1624.51	86.2456	1624.51	85.4814	1624.51	85.2449	1624.51	83.8915	1624.51	84.2579	1624.51	82.877	1624.51	83.2058	1624.51	82.5084	1624.51	82.1418	1624.51	81.0092	1624.51	79.6234	1624.51	79.0117	1624.51	77.4164	1624.51	75.5808	1624.51	78.4812	1624.51	74.5903	1624.51	78.1085	1624.51	74.0044	1624.51	74.11	1624.51	71.8675	1624.51	72.1957	1624.51	75.7586	1624.51	74.273	1624.51	74.5005	1624.51	73.6121	1624.51	62.8906	1624.51	67.7887	1624.51	70.6885	1624.51	66.145	1624.51	72.2702
1681.64	87.7636	1681.64	87.6718	1681.64	87.5884	1681.64	87.1923	1681.64	87.3108	1681.64	86.3943	1681.64	86.7829	1681.64	85.3607	1681.64	85.9952	1681.64	84.4985	1681.64	85.1413	1681.64	84.0259	1681.64	83.7181	1681.64	83.077	1681.64	81.9493	1681.64	81.904	1681.64	81.2272	1681.64	81.92	1681.64	80.5667	1681.64	80.8525	1681.64	76.7782	1681.64	79.4315	1681.64	70.623	1681.64	77.315	1681.64	74.8612	1681.64	69.1527	1681.64	74.248	1681.64	71.5098	1681.64	72.8562	1681.64	73.1778	1681.64	72.5789	1681.64	59.6137	1681.64	67.7383	1681.64	70.0367	1681.64	64.374	1681.64	71.4284
1741.7	87.7943	1741.7	87.9572	1741.7	87.3245	1741.7	87.4874	1741.7	87.1428	1741.7	86.6404	1741.7	86.7495	1741.7	85.7301	1741.7	86.0757	1741.7	84.5325	1741.7	84.9348	1741.7	83.8615	1741.7	83.2919	1741.7	83.7033	1741.7	82.7849	1741.7	80.6613	1741.7	80.6653	1741.7	74.9529	1741.7	76.1907	1741.7	74.7828	1741.7	77.6902	1741.7	77.0591	1741.7	78.3051	1741.7	78.5296	1741.7	73.9662	1741.7	75.6323	1741.7	71.4857	1741.7	73.1719	1741.7	72.7858	1741.7	75.2875	1741.7	72.3968	1741.7	69.9996	1741.7	66.3032	1741.7	67.6641	1741.7	62.7179	1741.7	71.1522
1803.22	87.8111	1803.22	87.9294	1803.22	87.156	1803.22	87.0394	1803.22	86.667	1803.22	86.1415	1803.22	86.2127	1803.22	85.5806	1803.22	85.8479	1803.22	84.6533	1803.22	85.0391	1803.22	84.0354	1803.22	83.7636	1803.22	82.2059	1803.22	82.2201	1803.22	78.2841	1803.22	81.7091	1803.22	76.4541	1803.22	82.1704	1803.22	76.5711	1803.22	79.4681	1803.22	75.5044	1803.22	69.3083	1803.22	76.9073	1803.22	70.0171	1803.22	73.2761	1803.22	73.0894	1803.22	68.9063	1803.22	71.1004	1803.22	72.991	1803.22	73.2157	1803.22	64.2822	1803.22	70.9639	1803.22	69.5034	1803.22	56.6987	1803.22	70.0894
1866.21	87.3377	1866.21	87.1181	1866.21	87.1467	1866.21	86.5637	1866.21	86.865	1866.21	86.5667	1866.21	86.3885	1866.21	85.8988	1866.21	86.1122	1866.21	84.8614	1866.21	84.7664	1866.21	84.6911	1866.21	83.3384	1866.21	81.8136	1866.21	83.3232	1866.21	79.2536	1866.21	80.9684	1866.21	80.7689	1866.21	77.963	1866.21	76.9006	1866.21	79.7841	1866.21	57.5652	1866.21	79.8158	1866.21	76.4132	1866.21	76.2207	1866.21	77.3005	1866.21	71.8586	1866.21	70.189	1866.21	73.1796	1866.21	74.5331	1866.21	73.6442	1866.21	72.3383	1866.21	70.715	1866.21	65.2977	1866.21	65.5762	1866.21	71.4894
1932.13	86.8732	1932.13	86.9675	1932.13	86.7084	1932.13	86.6223	1932.13	86.2977	1932.13	86.3883	1932.13	85.8674	1932.13	85.7228	1932.13	85.7553	1932.13	84.9809	1932.13	84.5813	1932.13	83.9069	1932.13	83.3095	1932.13	82.3037	1932.13	82.3694	1932.13	82.2161	1932.13	80.7245	1932.13	81.6867	1932.13	80.9899	1932.13	81.4174	1932.13	81.0558	1932.13	79.7602	1932.13	76.3251	1932.13	67.7952	1932.13	75.7283	1932.13	75.2546	1932.13	75.7939	1932.13	73.9679	1932.13	71.7273	1932.13	71.1159	1932.13	74.2074	1932.13	69.7519	1932.13	69.7964	1932.13	64.6015	1932.13	62.9304	1932.13	71.0243
1999.51	86.841	1999.51	86.7951	1999.51	86.6445	1999.51	86.521	1999.51	86.4602	1999.51	86.3813	1999.51	86.2237	1999.51	85.7322	1999.51	86.0805	1999.51	85.1339	1999.51	85.1732	1999.51	83.8057	1999.51	84.0357	1999.51	81.73	1999.51	82.8799	1999.51	80.9937	1999.51	80.9118	1999.51	79.2393	1999.51	77.611	1999.51	76.7182	1999.51	73.9929	1999.51	76.713	1999.51	76.9526	1999.51	74.4436	1999.51	76.5491	1999.51	73.7247	1999.51	75.7015	1999.51	74.7761	1999.51	73.0677	1999.51	74.0315	1999.51	73.2152	1999.51	71.2578	1999.51	70.7293	1999.51	59.0991	1999.51	62.8988	1999.51	70.419
2069.82	86.9386	2069.82	86.8366	2069.82	86.6187	2069.82	86.653	2069.82	86.152	2069.82	86.2284	2069.82	86.1565	2069.82	85.4463	2069.82	86.2088	2069.82	85.7078	2069.82	85.5789	2069.82	82.9691	2069.82	84.1709	2069.82	82.3582	2069.82	82.3569	2069.82	82.3605	2069.82	81.3927	2069.82	77.9793	2069.82	77.8866	2069.82	78.723	2069.82	79.6876	2069.82	78.5941	2069.82	78.7095	2069.82	74.7273	2069.82	73.0762	2069.82	71.3573	2069.82	74.6991	2069.82	72.2931	2069.82	72.734	2069.82	73.0371	2069.82	73.0139	2069.82	72.1621	2069.82	71.4531	2069.82	62.3293	2069.82	62.0934	2069.82	67.7114
2143.07	86.6506	2143.07	87.0623	2143.07	86.7343	2143.07	87.2687	2143.07	87.1942	2143.07	86.4028	2143.07	86.9724	2143.07	86.0834	2143.07	86.2841	2143.07	85.8828	2143.07	85.6316	2143.07	83.9515	2143.07	84.5834	2143.07	83.9213	2143.07	82.8596	2143.07	82.2391	2143.07	81.1253	2143.07	79.2108	2143.07	79.4964	2143.07	77.2826	2143.07	75.575	2143.07	74.4785	2143.07	72.7061	2143.07	74.4486	2143.07	75.6255	2143.07	72.2944	2143.07	76.0154	2143.07	71.7845	2143.07	73.5816	2143.07	71.8001	2143.07	73.1974	2143.07	69.8838	2143.07	70.1435	2143.07	64.4445	2143.07	57.5164	2143.07	67.4936
2219.24	86.6551	2219.24	87.1261	2219.24	87.121	2219.24	87.5117	2219.24	87.2754	2219.24	87.3337	2219.24	87.4197	2219.24	86.6596	2219.24	86.8162	2219.24	85.2144	2219.24	85.6086	2219.24	84.7696	2219.24	84.6718	2219.24	81.4759	2219.24	82.0785	2219.24	79.6683	2219.24	80.6876	2219.24	78.0634	2219.24	78.9353	2219.24	76.9327	2219.24	77.2646	2219.24	78.0866	2219.24	75.3236	2219.24	74.2421	2219.24	71.5763	2219.24	74.3994	2219.24	74.2716	2219.24	71.4162	2219.24	72.5772	2219.24	73.7923	2219.24	71.8604	2219.24	72.2265	2219.24	71.4771	2219.24	62.6316	2219.24	61.6768	2219.24	65.0834
2296.88	86.8227	2296.88	87.127	2296.88	86.9345	2296.88	87.2658	2296.88	87.4378	2296.88	87.606	2296.88	87.3638	2296.88	86.0869	2296.88	86.5335	2296.88	85.352	2296.88	85.9528	2296.88	84.6074	2296.88	84.0515	2296.88	81.6802	2296.88	82.5494	2296.88	79.7351	2296.88	80.85	2296.88	78.5078	2296.88	79.0484	2296.88	76.056	2296.88	76.5595	2296.88	74.1379	2296.88	73.5693	2296.88	72.0497	2296.88	70.852	2296.88	73.151	2296.88	71.95	2296.88	72.828	2296.88	71.6718	2296.88	71.4921	2296.88	72.0876	2296.88	72.1734	2296.88	72.0065	2296.88	66.2039	2296.88	63.6846	2296.88	68.0185
2378.91	86.6659	2378.91	87.0116	2378.91	87.0627	2378.91	87.6267	2378.91	87.258	2378.91	87.6176	2378.91	87.3947	2378.91	86.0168	2378.91	86.8819	2378.91	85.8764	2378.91	85.4563	2378.91	83.6463	2378.91	84.0847	2378.91	82.008	2378.91	81.6006	2378.91	80.6997	2378.91	78.8884	2378.91	76.9038	2378.91	78.3434	2378.91	75.6182	2378.91	75.5333	2378.91	73.9025	2378.91	75.6629	2378.91	72.2699	2378.91	71.7054	2378.91	72.9728	2378.91	72.0038	2378.91	72.165	2378.91	72.5781	2378.91	72.3263	2378.91	71.7285	2378.91	71.5301	2378.91	71.6633	2378.91	61.9581	2378.91	65.032	2378.91	65.8905
2462.4	86.9669	2462.4	87.1731	2462.4	87.0226	2462.4	87.6174	2462.4	87.285	2462.4	87.1805	2462.4	87.0145	2462.4	86.3731	2462.4	86.7653	2462.4	85.7499	2462.4	85.782	2462.4	83.1859	2462.4	83.2413	2462.4	81.2814	2462.4	82.1046	2462.4	79.5499	2462.4	78.6134	2462.4	78.5048	2462.4	74.2274	2462.4	74.3331	2462.4	75.26	2462.4	74.5481	2462.4	74.4936	2462.4	72.0886	2462.4	73.9909	2462.4	71.4356	2462.4	70.4666	2462.4	72.7596	2462.4	72.2214	2462.4	70.1678	2462.4	71.7887	2462.4	72.9955	2462.4	71.6893	2462.4	65.8176	2462.4	65.1546	2462.4	68.3184
2548.83	86.6337	2548.83	87.0041	2548.83	87.3898	2548.83	87.7456	2548.83	87.457	2548.83	86.8912	2548.83	87.6416	2548.83	86.7375	2548.83	86.7557	2548.83	85.125	2548.83	85.644	2548.83	83.2786	2548.83	83.5482	2548.83	82.4481	2548.83	81.0848	2548.83	77.0794	2548.83	80.3935	2548.83	75.1422	2548.83	78.6909	2548.83	73.2905	2548.83	75.41	2548.83	73.3119	2548.83	72.2673	2548.83	70.4782	2548.83	72.8922	2548.83	71.3525	2548.83	70.8068	2548.83	71.6929	2548.83	72.4968	2548.83	70.8576	2548.83	70.0757	2548.83	71.9682	2548.83	71.0253	2548.83	64.0331	2548.83	64.0392	2548.83	66.6109
2639.65	86.3253	2639.65	86.8265	2639.65	86.8391	2639.65	87.768	2639.65	87.3216	2639.65	87.2774	2639.65	87.2996	2639.65	86.3359	2639.65	87.1476	2639.65	84.2678	2639.65	85.5488	2639.65	84.4447	2639.65	83.0419	2639.65	80.7564	2639.65	80.7075	2639.65	79.1973	2639.65	77.8292	2639.65	76.8674	2639.65	76.6151	2639.65	77.2244	2639.65	74.5399	2639.65	70.9821	2639.65	74.5741	2639.65	72.607	2639.65	72.9667	2639.65	69.0981	2639.65	70.9154	2639.65	72.3563	2639.65	71.8509	2639.65	70.416	2639.65	71.8416	2639.65	72.7559	2639.65	72.3868	2639.65	67.0296	2639.65	65.9732	2639.65	68.4296
2731.93	86.2638	2731.93	86.6875	2731.93	86.5029	2731.93	87.3493	2731.93	87.229	2731.93	86.9863	2731.93	87.3472	2731.93	85.6679	2731.93	86.557	2731.93	84.7385	2731.93	85.5266	2731.93	83.6211	2731.93	82.7399	2731.93	79.2493	2731.93	81.7762	2731.93	78.4086	2731.93	78.9681	2731.93	75.5061	2731.93	76.7652	2731.93	71.8038	2731.93	73.7567	2731.93	71.2516	2731.93	69.8163	2731.93	71.8003	2731.93	72.5754	2731.93	68.9396	2731.93	70.7121	2731.93	72.2593	2731.93	72.5217	2731.93	69.8825	2731.93	71.4536	2731.93	71.5689	2731.93	73.0982	2731.93	65.5554	2731.93	65.82	2731.93	65.7029
2828.61	86.4424	2828.61	87.1251	2828.61	86.913	2828.61	87.7477	2828.61	86.7687	2828.61	87.1752	2828.61	87.2031	2828.61	85.6778	2828.61	86.6041	2828.61	85.398	2828.61	85.0245	2828.61	82.4347	2828.61	82.5178	2828.61	80.6284	2828.61	80.4562	2828.61	78.4921	2828.61	78.9641	2828.61	75.693	2828.61	77.9341	2828.61	74.9492	2828.61	75.1423	2828.61	73.0589	2828.61	73.7651	2828.61	70.4951	2828.61	71.3951	2828.61	69.3188	2828.61	70.2801	2828.61	71.4074	2828.61	72.2364	2828.61	69.9179	2828.61	70.7498	2828.61	72.3998	2828.61	71.9641	2828.61	65.1766	2828.61	67.2175	2828.61	67.9661
2928.22	86.013	2928.22	86.7906	2928.22	86.8021	2928.22	87.3234	2928.22	87.0748	2928.22	86.9558	2928.22	87.2868	2928.22	85.0412	2928.22	86.3159	2928.22	84.9827	2928.22	84.1361	2928.22	81.7901	2928.22	82.472	2928.22	81.0006	2928.22	81.2568	2928.22	78.9608	2928.22	80.1064	2928.22	77.2516	2928.22	77.3004	2928.22	76.2189	2928.22	74.531	2928.22	71.1209	2928.22	73.9761	2928.22	71.2682	2928.22	70.6506	2928.22	68.3398	2928.22	69.775	2928.22	70.7103	2928.22	73.2681	2928.22	70.8668	2928.22	69.5006	2928.22	72.1142	2928.22	71.4471	2928.22	67.3361	2928.22	66.3302	2928.22	65.6529
3030.76	86.5427	3030.76	86.6994	3030.76	86.1176	3030.76	86.858	3030.76	87.1368	3030.76	86.9223	3030.76	87.044	3030.76	85.2985	3030.76	86.0042	3030.76	84.0568	3030.76	83.977	3030.76	83.0618	3030.76	82.7339	3030.76	80.6457	3030.76	82.0295	3030.76	77.16	3030.76	80.239	3030.76	76.0119	3030.76	76.9662	3030.76	72.5024	3030.76	75.0841	3030.76	71.8568	3030.76	70.6217	3030.76	69.9258	3030.76	69.0816	3030.76	68.9915	3030.76	68.6841	3030.76	71.3717	3030.76	71.2136	3030.76	68.7177	3030.76	71.8955	3030.76	72.1655	3030.76	71.9731	3030.76	66.035	3030.76	67.12	3030.76	67.3089
3137.7	87.4236	3137.7	87.1403	3137.7	86.8254	3137.7	87.7179	3137.7	86.7156	3137.7	86.3338	3137.7	86.6992	3137.7	85.8303	3137.7	85.9187	3137.7	83.58	3137.7	83.8863	3137.7	83.7627	3137.7	83.1524	3137.7	79.4591	3137.7	82.542	3137.7	78.3344	3137.7	80.8451	3137.7	74.527	3137.7	77.114	3137.7	73.9995	3137.7	73.8913	3137.7	71.4549	3137.7	66.9973	3137.7	72.6095	3137.7	67.887	3137.7	69.683	3137.7	67.4618	3137.7	70.5398	3137.7	70.511	3137.7	70.9887	3137.7	72.5897	3137.7	72.2628	3137.7	72.556	3137.7	66.9709	3137.7	68.4611	3137.7	66.5711
3249.02	87.1036	3249.02	86.5552	3249.02	87.0538	3249.02	87.0639	3249.02	86.862	3249.02	86.0535	3249.02	85.8442	3249.02	84.9248	3249.02	85.5644	3249.02	84.8297	3249.02	83.455	3249.02	82.9352	3249.02	84.2506	3249.02	80.3203	3249.02	82.7982	3249.02	79.1412	3249.02	80.2205	3249.02	77.3063	3249.02	75.069	3249.02	76.1738	3249.02	72.2805	3249.02	72.5404	3249.02	70.0303	3249.02	69.8457	3249.02	68.3416	3249.02	69.9479	3249.02	69.1719	3249.02	70.3746	3249.02	69.2992	3249.02	70.5015	3249.02	72.1934	3249.02	71.8606	3249.02	73.3832	3249.02	67.0311	3249.02	68.2028	3249.02	66.9336
3363.28	86.9534	3363.28	86.6885	3363.28	87.0547	3363.28	86.656	3363.28	86.914	3363.28	85.9561	3363.28	85.6053	3363.28	84.4018	3363.28	84.8356	3363.28	84.8035	3363.28	84.2202	3363.28	82.46	3363.28	85.0993	3363.28	81.2553	3363.28	83.1778	3363.28	78.9624	3363.28	77.8381	3363.28	77.7135	3363.28	74.7363	3363.28	74.5053	3363.28	73.1995	3363.28	71.762	3363.28	70.0262	3363.28	70.4707	3363.28	70.2397	3363.28	69.5067	3363.28	68.9834	3363.28	69.1822	3363.28	67.9198	3363.28	71.8349	3363.28	73.2966	3363.28	72.6777	3363.28	71.7549	3363.28	66.3699	3363.28	67.0722	3363.28	66.1742
3481.93	86.9108	3481.93	86.3554	3481.93	86.4515	3481.93	86.1722	3481.93	85.4234	3481.93	85.6045	3481.93	84.7943	3481.93	84.3641	3481.93	84.6876	3481.93	84.8297	3481.93	84.8548	3481.93	82.9391	3481.93	85.6952	3481.93	82.1498	3481.93	82.0084	3481.93	78.27	3481.93	77.8186	3481.93	76.75	3481.93	74.3149	3481.93	71.2519	3481.93	72.2048	3481.93	71.9973	3481.93	73.4818	3481.93	71.5564	3481.93	71.3282	3481.93	70.3891	3481.93	67.767	3481.93	68.9159	3481.93	68.0437	3481.93	72.8358	3481.93	70.71	3481.93	71.8372	3481.93	72.0211	3481.93	68.2336	3481.93	69.002	3481.93	66.12
3604.98	87.1863	3604.98	86.345	3604.98	86.4236	3604.98	85.4209	3604.98	84.9764	3604.98	84.891	3604.98	84.5595	3604.98	84.4537	3604.98	84.8798	3604.98	84.9745	3604.98	85.5306	3604.98	83.9189	3604.98	85.6062	3604.98	81.9044	3604.98	81.3835	3604.98	78.5743	3604.98	78.0483	3604.98	76.5619	3604.98	75.2129	3604.98	73.4905	3604.98	74.2728	3604.98	73.3269	3604.98	73.2374	3604.98	70.4628	3604.98	74.1013	3604.98	70.032	3604.98	70.5244	3604.98	70.4073	3604.98	67.9167	3604.98	72.0698	3604.98	72.431	3604.98	72.7529	3604.98	72.3919	3604.98	68.1597	3604.98	70.3206	3604.98	68.4123
3732.42	86.9601	3732.42	86.386	3732.42	86.2922	3732.42	85.0378	3732.42	83.9674	3732.42	84.4819	3732.42	83.8462	3732.42	84.7463	3732.42	85.2622	3732.42	84.6055	3732.42	86.8006	3732.42	84.4062	3732.42	84.8252	3732.42	80.4903	3732.42	81.4499	3732.42	79.45	3732.42	78.6343	3732.42	76.6949	3732.42	76.3963	3732.42	73.6543	3732.42	74.3333	3732.42	72.1596	3732.42	72.8465	3732.42	70.7572	3732.42	73.8441	3732.42	68.9829	3732.42	72.1613	3732.42	69.3529	3732.42	68.5998	3732.42	72.5916	3732.42	72.7286	3732.42	71.1684	3732.42	71.5206	3732.42	68.8597	3732.42	69.7821	3732.42	63.5083
3864.26	87.6933	3864.26	86.256	3864.26	86.1523	3864.26	85.3143	3864.26	84.8008	3864.26	84.3175	3864.26	84.4236	3864.26	84.4497	3864.26	85.3355	3864.26	85.5445	3864.26	86.6233	3864.26	83.652	3864.26	84.896	3864.26	81.393	3864.26	82.313	3864.26	79.8111	3864.26	78.2614	3864.26	76.3064	3864.26	74.9929	3864.26	73.4884	3864.26	74.3419	3864.26	70.5402	3864.26	73.5693	3864.26	70.4139	3864.26	72.2963	3864.26	68.6992	3864.26	72.7334	3864.26	69.1405	3864.26	70.7747	3864.26	72.6391	3864.26	72.8468	3864.26	70.9695	3864.26	71.0192	3864.26	67.2609	3864.26	66.98	3864.26	58.0438
4000.49	87.8015	4000.49	86.9272	4000.49	87.0501	4000.49	85.4538	4000.49	85.0462	4000.49	85.0183	4000.49	85.3553	4000.49	84.6306	4000.49	86.6365	4000.49	85.6371	4000.49	86.7134	4000.49	82.4203	4000.49	85.7207	4000.49	82.5794	4000.49	80.869	4000.49	78.3174	4000.49	75.8958	4000.49	74.2293	4000.49	75.4116	4000.49	73.8585	4000.49	72.4155	4000.49	71.5944	4000.49	71.6214	4000.49	68.3391	4000.49	67.7607	4000.49	69.7197	4000.49	70.4251	4000.49	69.3794	4000.49	71.503	4000.49	72.0037	4000.49	70.8959	4000.49	69.2254	4000.49	71.5203	4000.49	69.5064	4000.49	67.0921	4000.49	61.4635
4141.11	87.8131	4141.11	86.6977	4141.11	86.3045	4141.11	85.6544	4141.11	85.3624	4141.11	84.5691	4141.11	85.5818	4141.11	84.2852	4141.11	85.6583	4141.11	84.9437	4141.11	86.8548	4141.11	83.5477	4141.11	84.922	4141.11	79.481	4141.11	77.6275	4141.11	77.3382	4141.11	75.2205	4141.11	73.5835	4141.11	73.86	4141.11	73.9006	4141.11	72.8302	4141.11	70.4384	4141.11	71.9377	4141.11	66.842	4141.11	65.7026	4141.11	67.5666	4141.11	68.9683	4141.11	69.0844	4141.11	72.6325	4141.11	71.5284	4141.11	69.2379	4141.11	69.0893	4141.11	70.3871	4141.11	70.0538	4141.11	67.6083	4141.11	62.6795
4287.6	88.3684	4287.6	87.52	4287.6	87.5193	4287.6	86.1841	4287.6	86.3508	4287.6	84.9709	4287.6	85.1192	4287.6	84.6424	4287.6	84.8445	4287.6	83.6827	4287.6	86.4748	4287.6	82.7672	4287.6	82.2092	4287.6	79.1599	4287.6	72.1135	4287.6	77.3423	4287.6	76.4041	4287.6	75.3975	4287.6	76.3612	4287.6	69.639	4287.6	73.969	4287.6	65.848	4287.6	65.745	4287.6	66.7095	4287.6	68.0716	4287.6	67.8953	4287.6	64.3069	4287.6	68.3324	4287.6	73.0506	4287.6	70.1612	4287.6	71.2614	4287.6	69.5782	4287.6	70.1479	4287.6	66.0173	4287.6	71.2929	4287.6	64.0603
4438.48	88.4612	4438.48	87.3712	4438.48	88.0052	4438.48	86.5789	4438.48	86.975	4438.48	84.6804	4438.48	85.6511	4438.48	83.0119	4438.48	85.1197	4438.48	84.6004	4438.48	86.0588	4438.48	78.0257	4438.48	75.7291	4438.48	81.4304	4438.48	78.6924	4438.48	75.0507	4438.48	77.8392	4438.48	71.5938	4438.48	76.9458	4438.48	70.4306	4438.48	71.6962	4438.48	68.5523	4438.48	69.4636	4438.48	66.0817	4438.48	60.1377	4438.48	67.7097	4438.48	61.414	4438.48	66.3659	4438.48	71.3228	4438.48	69.445	4438.48	71.3136	4438.48	68.3641	4438.48	68.7144	4438.48	67.9151	4438.48	71.8706	4438.48	63.5182
4595.21	89.4939	4595.21	88.2398	4595.21	89.3685	4595.21	87.1086	4595.21	87.4201	4595.21	85.3997	4595.21	85.4864	4595.21	83.0794	4595.21	85.1835	4595.21	82.8559	4595.21	85.2927	4595.21	82.0348	4595.21	75.1299	4595.21	76.5734	4595.21	79.8617	4595.21	76.8566	4595.21	80.4672	4595.21	74.8032	4595.21	75.3656	4595.21	73.1281	4595.21	72.4905	4595.21	68.9604	4595.21	70.0436	4595.21	65.7372	4595.21	70.4597	4595.21	66.223	4595.21	68.0707	4595.21	67.0708	4595.21	63.6811	4595.21	69.4584	4595.21	73.0676	4595.21	67.815	4595.21	67.6118	4595.21	71.5094	4595.21	67.6765	4595.21	51.2512
4756.35	88.5778	4756.35	88.2423	4756.35	89.1779	4756.35	87.1199	4756.35	87.1877	4756.35	84.0427	4756.35	85.4464	4756.35	82.6835	4756.35	84.8724	4756.35	83.007	4756.35	81.6304	4756.35	81.1314	4756.35	78.9412	4756.35	80.1139	4756.35	83.4155	4756.35	77.1254	4756.35	79.1149	4756.35	75.5161	4756.35	75.8894	4756.35	68.267	4756.35	74.0555	4756.35	68.0102	4756.35	66.5947	4756.35	66.5389	4756.35	69.6678	4756.35	67.6296	4756.35	66.5677	4756.35	62.8926	4756.35	56.6259	4756.35	68.5637	4756.35	72.2944	4756.35	71.3012	4756.35	68.6524	4756.35	70.4468	4756.35	63.2426	4756.35	62.9333
4924.8	87.2273	4924.8	88.2273	4924.8	87.3286	4924.8	87.2455	4924.8	86.6726	4924.8	84.4542	4924.8	85.411	4924.8	82.4005	4924.8	85.1852	4924.8	83.3036	4924.8	79.593	4924.8	80.0456	4924.8	83.8751	4924.8	81.6425	4924.8	82.1275	4924.8	76.7243	4924.8	79.5305	4924.8	72.9659	4924.8	73.1238	4924.8	73.0715	4924.8	70.0089	4924.8	70.327	4924.8	67.6109	4924.8	66.6353	4924.8	63.1501	4924.8	65.6734	4924.8	65.5643	4924.8	65.7631	4924.8	62.1101	4924.8	70.2943	4924.8	71.2275	4924.8	68.0799	4924.8	68.7582	4924.8	66.1302	4924.8	72.7488	4924.8	66.4173
5097.66	87.9653	5097.66	88.2371	5097.66	87.403	5097.66	87.1891	5097.66	86.3306	5097.66	83.7249	5097.66	84.5958	5097.66	80.9007	5097.66	84.9922	5097.66	83.062	5097.66	78.3668	5097.66	83.3719	5097.66	85.3014	5097.66	78.9109	5097.66	83.0856	5097.66	79.1178	5097.66	77.3487	5097.66	76.1348	5097.66	74.2068	5097.66	72.2701	5097.66	70.526	5097.66	67.6855	5097.66	67.8147	5097.66	67.1114	5097.66	65.8564	5097.66	63.9912	5097.66	65.8057	5097.66	63.7897	5097.66	66.6537	5097.66	68.8989	5097.66	69.3064	5097.66	69.099	5097.66	71.6471	5097.66	67.9874	5097.66	71.9227	5097.66	62.3064
5277.83	88.4744	5277.83	87.6786	5277.83	87.2956	5277.83	87.5432	5277.83	87.1212	5277.83	83.8453	5277.83	84.9448	5277.83	82.3268	5277.83	85.009	5277.83	83.9878	5277.83	79.461	5277.83	82.1079	5277.83	85.4938	5277.83	82.0051	5277.83	81.055	5277.83	76.9396	5277.83	77.2372	5277.83	73.5776	5277.83	74.1504	5277.83	70.7495	5277.83	71.6901	5277.83	68.556	5277.83	70.472	5277.83	67.9485	5277.83	67.568	5277.83	65.7563	5277.83	65.223	5277.83	64.9001	5277.83	67.8393	5277.83	69.5329	5277.83	67.0968	5277.83	69.3029	5277.83	71.1937	5277.83	69.7344	5277.83	58.4731	5277.83	61.7515
5463.87	88.8981	5463.87	88.4126	5463.87	89.0083	5463.87	87.4519	5463.87	88.3365	5463.87	84.6737	5463.87	86.0935	5463.87	82.8762	5463.87	84.6187	5463.87	84.1258	5463.87	83.0107	5463.87	82.2752	5463.87	84.8713	5463.87	80.0987	5463.87	80.2919	5463.87	77.4685	5463.87	77.226	5463.87	75.2513	5463.87	75.4083	5463.87	70.8426	5463.87	70.3122	5463.87	68.256	5463.87	67.3354	5463.87	63.5547	5463.87	67.5656	5463.87	64.5719	5463.87	65.5465	5463.87	64.7195	5463.87	66.4213	5463.87	69.1013	5463.87	70.1066	5463.87	72.0185	5463.87	68.2589	5463.87	63.836	5463.87	68.4101	5463.87	69.23
5657.23	88.2139	5657.23	88.423	5657.23	89.3306	5657.23	87.8574	5657.23	88.3469	5657.23	84.6777	5657.23	85.461	5657.23	82.7012	5657.23	82.7089	5657.23	83.8505	5657.23	84.7467	5657.23	82.4242	5657.23	83.3948	5657.23	79.3856	5657.23	80.2091	5657.23	76.7504	5657.23	76.9684	5657.23	72.1524	5657.23	72.1602	5657.23	70.0035	5657.23	69.3246	5657.23	65.5694	5657.23	69.0732	5657.23	65.932	5657.23	62.4335	5657.23	63.6748	5657.23	64.3512	5657.23	63.5118	5657.23	69.5632	5657.23	66.8148	5657.23	67.0486	5657.23	69.6936	5657.23	69.8973	5657.23	66.0358	5657.23	71.6398	5657.23	65.8056
5856.45	87.1146	5856.45	88.1629	5856.45	88.9299	5856.45	88.2237	5856.45	88.6	5856.45	85.7332	5856.45	86.1906	5856.45	83.5817	5856.45	82.9663	5856.45	83.9594	5856.45	85.4834	5856.45	80.9259	5856.45	81.8853	5856.45	79.2705	5856.45	80.0914	5856.45	75.9491	5856.45	76.4969	5856.45	73.3275	5856.45	71.5021	5856.45	70.4432	5856.45	69.7012	5856.45	66.2444	5856.45	66.3697	5856.45	60.7235	5856.45	66.1332	5856.45	58.1703	5856.45	65.4489	5856.45	63.0768	5856.45	57.0099	5856.45	67.8132	5856.45	67.1508	5856.45	68.0715	5856.45	69.9382	5856.45	67.5042	5856.45	66.4607	5856.45	62.7534
6062.99	87.9986	6062.99	89.193	6062.99	88.1298	6062.99	88.5488	6062.99	87.4099	6062.99	86.1049	6062.99	86.1011	6062.99	83.3119	6062.99	82.9051	6062.99	83.4605	6062.99	85.1364	6062.99	81.8431	6062.99	81.6071	6062.99	78.1149	6062.99	79.2004	6062.99	76.4104	6062.99	72.9513	6062.99	74.3008	6062.99	71.7893	6062.99	68.5809	6062.99	67.8179	6062.99	66.8544	6062.99	66.3932	6062.99	64.8129	6062.99	60.3685	6062.99	61.4871	6062.99	55.715	6062.99	62.2774	6062.99	62.8255	6062.99	66.131	6062.99	67.3221	6062.99	71.7507	6062.99	70.7995	6062.99	59.0024	6062.99	59.4337	6062.99	67.2536
6276.86	89.5023	6276.86	88.7791	6276.86	88.0003	6276.86	88.6409	6276.86	87.4278	6276.86	86.3942	6276.86	86.6787	6276.86	83.2142	6276.86	83.7368	6276.86	83.4592	6276.86	84.7321	6276.86	81.073	6276.86	81.7172	6276.86	79.7673	6276.86	79.0514	6276.86	77.455	6276.86	74.373	6276.86	72.4796	6276.86	72.3595	6276.86	70.7928	6276.86	71.4559	6276.86	67.9172	6276.86	66.9885	6276.86	62.3545	6276.86	66.213	6276.86	63.4971	6276.86	57.3101	6276.86	62.3691	6276.86	57.7858	6276.86	68.398	6276.86	68.9185	6276.86	68.5079	6276.86	68.0468	6276.86	67.3298	6276.86	67.4098	6276.86	63.7893
6498.05	89.0537	6498.05	88.0809	6498.05	88.4484	6498.05	88.5609	6498.05	87.4494	6498.05	86.366	6498.05	86.6753	6498.05	83.0002	6498.05	83.2533	6498.05	83.0936	6498.05	83.8049	6498.05	82.4843	6498.05	82.8814	6498.05	79.84	6498.05	78.5159	6498.05	77.4866	6498.05	77.1312	6498.05	75.759	6498.05	76.2911	6498.05	70.4999	6498.05	73.194	6498.05	69.1559	6498.05	70.7735	6498.05	67.879	6498.05	66.6185	6498.05	63.0819	6498.05	66.4547	6498.05	62.4423	6498.05	62.3173	6498.05	67.6604	6498.05	65.4522	6498.05	70.9878	6498.05	69.8164	6498.05	64.6889	6498.05	65.4174	6498.05	58.4479
6726.56	88.5108	6726.56	87.9446	6726.56	88.5484	6726.56	88.1672	6726.56	87.2678	6726.56	86.066	6726.56	85.9744	6726.56	82.4	6726.56	84.1194	6726.56	83.0293	6726.56	82.6218	6726.56	82.1915	6726.56	82.083	6726.56	80.1671	6726.56	77.8298	6726.56	77.6145	6726.56	78.1577	6726.56	72.2956	6726.56	75.7042	6726.56	70.6812	6726.56	73.3688	6726.56	68.1517	6726.56	69.7994	6726.56	63.8806	6726.56	63.1161	6726.56	63.5794	6726.56	63.8779	6726.56	62.2302	6726.56	62.0594	6726.56	67.9894	6726.56	65.3794	6726.56	69.9189	6726.56	68.6988	6726.56	61.8234	6726.56	49.4702	6726.56	63.3921
6963.87	88.5359	6963.87	88.3652	6963.87	87.609	6963.87	88.0699	6963.87	87.3551	6963.87	85.7336	6963.87	85.645	6963.87	82.7652	6963.87	84.2911	6963.87	83.2433	6963.87	83.079	6963.87	82.0403	6963.87	80.3677	6963.87	79.233	6963.87	76.8807	6963.87	75.8178	6963.87	76.7004	6963.87	73.6773	6963.87	73.9421	6963.87	68.6589	6963.87	66.0795	6963.87	64.6908	6963.87	62.1419	6963.87	64.1048	6963.87	59.8524	6963.87	58.6549	6963.87	61.3209	6963.87	62.0378	6963.87	50.5937	6963.87	66.7791	6963.87	63.7498	6963.87	67.7629	6963.87	67.7049	6963.87	63.8744	6963.87	63.3898	6963.87	67.4661
7209.96	88.6627	7209.96	87.7044	7209.96	87.6852	7209.96	88.1826	7209.96	87.6774	7209.96	86.3956	7209.96	86.6697	7209.96	83.5875	7209.96	85.3849	7209.96	83.4007	7209.96	83.4739	7209.96	81.5908	7209.96	79.2529	7209.96	78.1698	7209.96	79.0496	7209.96	75.4098	7209.96	76.3288	7209.96	71.836	7209.96	69.8406	7209.96	66.5992	7209.96	59.8646	7209.96	65.3552	7209.96	59.6156	7209.96	64.2367	7209.96	58.3874	7209.96	60.1168	7209.96	57.219	7209.96	56.6012	7209.96	59.2889	7209.96	62.2421	7209.96	62.9254	7209.96	67.2522	7209.96	64.9308	7209.96	50.8176	7209.96	56.8969	7209.96	54.8706
7464.84	88.6106	7464.84	88.6478	7464.84	88.3526	7464.84	89.119	7464.84	88.3885	7464.84	86.786	7464.84	87.2629	7464.84	84.3503	7464.84	85.7077	7464.84	83.5035	7464.84	83.6428	7464.84	81.68	7464.84	78.7463	7464.84	77.9178	7464.84	80.7985	7464.84	76.4046	7464.84	75.5707	7464.84	71.6379	7464.84	67.104	7464.84	69.067	7464.84	67.0981	7464.84	67.1606	7464.84	66.1587	7464.84	62.9092	7464.84	64.6034	7464.84	61.7691	7464.84	54.5618	7464.84	59.6044	7464.84	57.8032	7464.84	64.3994	7464.84	64.5354	7464.84	66.1835	7464.84	66.1451	7464.84	59.0739	7464.84	60.9805	7464.84	60.9728
7727.05	88.7542	7727.05	89.212	7727.05	88.2904	7727.05	88.7745	7727.05	88.7297	7727.05	86.6103	7727.05	87.2663	7727.05	84.1864	7727.05	85.3717	7727.05	83.5017	7727.05	83.4106	7727.05	81.7294	7727.05	80.3426	7727.05	79.0676	7727.05	81.7637	7727.05	75.7779	7727.05	74.8562	7727.05	72.9884	7727.05	70.7475	7727.05	69.5851	7727.05	70.7551	7727.05	65.84	7727.05	69.8023	7727.05	64.1012	7727.05	66.3848	7727.05	59.5572	7727.05	65.4986	7727.05	56.8725	7727.05	58.7308	7727.05	61.429	7727.05	54.8121	7727.05	66.6095	7727.05	66.5042	7727.05	58.3393	7727.05	64.0915	7727.05	64.3907
7999.51	88.918	7999.51	88.9166	7999.51	88.9304	7999.51	88.6358	7999.51	88.275	7999.51	86.6855	7999.51	86.9783	7999.51	83.9759	7999.51	85.0155	7999.51	82.728	7999.51	81.8074	7999.51	82.0002	7999.51	82.4815	7999.51	78.9752	7999.51	80.8	7999.51	77.2305	7999.51	73.675	7999.51	72.8772	7999.51	71.9522	7999.51	68.2133	7999.51	71.9417	7999.51	65.1679	7999.51	67.5676	7999.51	64.3368	7999.51	64.105	7999.51	60.1336	7999.51	62.6051	7999.51	58.8128	7999.51	45.4452	7999.51	60.1504	7999.51	60.384	7999.51	65.8296	7999.51	63.8754	7999.51	61.7118	7999.51	56.1968	7999.51	59.5464
8282.23	88.6148	8282.23	88.8523	8282.23	88.6041	8282.23	87.8871	8282.23	87.9019	8282.23	86.616	8282.23	86.7801	8282.23	83.7978	8282.23	84.6328	8282.23	82.5373	8282.23	80.6294	8282.23	81.9912	8282.23	83.9381	8282.23	79.3387	8282.23	78.7684	8282.23	76.1776	8282.23	72.5483	8282.23	72.2079	8282.23	72.4489	8282.23	67.4918	8282.23	68.1566	8282.23	64.7847	8282.23	64.2677	8282.23	63.5797	8282.23	58.575	8282.23	58.607	8282.23	59.4508	8282.23	56.395	8282.23	52.6411	8282.23	60.04	8282.23	61.0831	8282.23	63.6523	8282.23	67.8116	8282.23	51.9086	8282.23	59.4822	8282.23	62.4063
8573.73	88.53	8573.73	88.5644	8573.73	88.5271	8573.73	87.8691	8573.73	87.4179	8573.73	86.7292	8573.73	87.1753	8573.73	83.9088	8573.73	85.0878	8573.73	82.7778	8573.73	81.6304	8573.73	81.9027	8573.73	83.227	8573.73	78.4285	8573.73	75.9115	8573.73	75.01	8573.73	76.0549	8573.73	70.4864	8573.73	71.1858	8573.73	67.5341	8573.73	64.7808	8573.73	63.7419	8573.73	60.8751	8573.73	62.3636	8573.73	56.9595	8573.73	57.0593	8573.73	45.957	8573.73	54.9401	8573.73	58.9702	8573.73	59.8692	8573.73	62.2828	8573.73	64.9644	8573.73	63.0666	8573.73	56.9771	8573.73	62.4447	8573.73	58.9956
8876.95	88.7602	8876.95	88.596	8876.95	88.6901	8876.95	87.5876	8876.95	87.0523	8876.95	86.5832	8876.95	86.6874	8876.95	84.3691	8876.95	84.8095	8876.95	82.6557	8876.95	82.3357	8876.95	81.2055	8876.95	81.4756	8876.95	77.4968	8876.95	75.2788	8876.95	74.8669	8876.95	75.1818	8876.95	70.3756	8876.95	69.0547	8876.95	66.3605	8876.95	63.1429	8876.95	63.4347	8876.95	63.7018	8876.95	58.8119	8876.95	63.6746	8876.95	58.2805	8876.95	58.562	8876.95	54.3388	8876.95	53.9741	8876.95	55.3201	8876.95	48.7334	8876.95	61.8821	8876.95	64.1827	8876.95	52.7141	8876.95	53.2226	8876.95	62.3672
9188.96	88.9019	9188.96	88.7876	9188.96	88.7164	9188.96	87.6197	9188.96	86.8542	9188.96	86.2852	9188.96	86.2426	9188.96	84.1482	9188.96	84.3137	9188.96	81.6567	9188.96	82.2628	9188.96	80.1695	9188.96	78.4546	9188.96	77.6571	9188.96	77.474	9188.96	74.5089	9188.96	73.4464	9188.96	70.7641	9188.96	70.21	9188.96	65.8792	9188.96	67.154	9188.96	62.9549	9188.96	62.76	9188.96	60.6703	9188.96	60.2492	9188.96	58.5848	9188.96	60.3556	9188.96	51.8531	9188.96	48.0637	9188.96	57.2126	9188.96	61.2453	9188.96	64.8191	9188.96	64.3693	9188.96	53.5904	9188.96	56.9019	9188.96	55.3903
9514.16	88.8042	9514.16	89.2208	9514.16	88.807	9514.16	87.5836	9514.16	86.9507	9514.16	86.4684	9514.16	86.3936	9514.16	84.4855	9514.16	83.4582	9514.16	80.5165	9514.16	81.8385	9514.16	79.7931	9514.16	77.0834	9514.16	77.5355	9514.16	77.758	9514.16	74.3438	9514.16	73.05	9514.16	70.199	9514.16	69.7441	9514.16	66.2701	9514.16	65.4399	9514.16	62.6919	9514.16	62.1994	9514.16	59.8709	9514.16	60.4571	9514.16	58.8559	9514.16	59.5794	9514.16	51.7434	9514.16	54.0391	9514.16	58.2773	9514.16	49.8395	9514.16	63.609	9514.16	64.3541	9514.16	55.0538	9514.16	54.0398	9514.16	57.6973
9849.61	89.4055	9849.61	89.0406	9849.61	88.6886	9849.61	88.033	9849.61	87.5202	9849.61	86.1725	9849.61	86.0705	9849.61	84.4133	9849.61	82.4728	9849.61	79.9149	9849.61	81.5109	9849.61	79.3773	9849.61	77.7734	9849.61	76.2942	9849.61	75.9112	9849.61	73.2393	9849.61	71.51	9849.61	67.3995	9849.61	66.2589	9849.61	64.0979	9849.61	64.6875	9849.61	61.3479	9849.61	60.6825	9849.61	59.0767	9849.61	55.0934	9849.61	58.3319	9849.61	55.8965	9849.61	39.4826	9849.61	48.3893	9849.61	57.9325	9849.61	53.6933	9849.61	62.8634	9849.61	61.7588	9849.61	51.0768	9849.61	59.6231	9849.61	56.0517
10196.8	89.9207	10196.8	89.2198	10196.8	88.7821	10196.8	88.2752	10196.8	87.9248	10196.8	85.9502	10196.8	85.795	10196.8	84.0929	10196.8	82.3577	10196.8	79.9515	10196.8	80.4643	10196.8	78.5241	10196.8	77.5096	10196.8	75.3062	10196.8	74.6473	10196.8	71.4301	10196.8	70.3844	10196.8	66.1911	10196.8	63.0087	10196.8	63.0491	10196.8	61.4551	10196.8	62.2501	10196.8	61.3772	10196.8	58.6515	10196.8	59.7545	10196.8	58.0385	10196.8	56.8308	10196.8	45.3775	10196.8	50.168	10196.8	54.4	10196.8	57.7159	10196.8	58.6271	10196.8	61.0246	10196.8	50.8713	10196.8	49.1469	10196.8	54.8879
10555.7	90.3896	10555.7	89.5932	10555.7	89.0776	10555.7	88.6482	10555.7	88.1862	10555.7	85.8843	10555.7	86.328	10555.7	83.7335	10555.7	82.6495	10555.7	79.6025	10555.7	79.1907	10555.7	77.344	10555.7	76.982	10555.7	74.1327	10555.7	74.3895	10555.7	70.3543	10555.7	68.6624	10555.7	66.9632	10555.7	66.1348	10555.7	61.2374	10555.7	62.2984	10555.7	59.2869	10555.7	60.048	10555.7	57.5432	10555.7	59.1695	10555.7	56.6467	10555.7	55.465	10555.7	47.3112	10555.7	49.8578	10555.7	53.17	10555.7	49.5827	10555.7	57.7008	10555.7	59.7045	10555.7	55.9076	10555.7	57.588	10555.7	55.4562
10927.7	90.2441	10927.7	89.7866	10927.7	89.6707	10927.7	88.5723	10927.7	87.9298	10927.7	85.3184	10927.7	85.9761	10927.7	83.434	10927.7	83.1325	10927.7	78.6443	10927.7	78.2458	10927.7	76.3454	10927.7	76.062	10927.7	73.3051	10927.7	73.3215	10927.7	69.7243	10927.7	68.3757	10927.7	64.6539	10927.7	67.074	10927.7	60.6644	10927.7	59.6577	10927.7	58.4307	10927.7	54.2264	10927.7	56.9247	10927.7	56.7125	10927.7	57.6336	10927.7	55.718	10927.7	49.4716	10927.7	56.4939	10927.7	49.9946	10927.7	34.092	10927.7	56.1366	10927.7	57.5929	10927.7	48.4969	10927.7	53.4175	10927.7	56.1613
11313	90.5443	11313	90.0007	11313	89.5383	11313	88.4338	11313	88.1419	11313	85.1856	11313	85.0812	11313	82.8152	11313	82.3364	11313	77.6842	11313	77.2998	11313	75.8626	11313	75.7416	11313	72.8145	11313	69.4422	11313	69.3251	11313	68.8675	11313	64.0335	11313	62.7207	11313	59.9421	11313	57.1439	11313	57.113	11313	57.2243	11313	57.5541	11313	57.5989	11313	55.3642	11313	56.324	11313	48.0709	11313	50.1206	11313	49.4037	11313	46.1744	11313	52.6315	11313	59.0153	11313	51.8497	11313	56.2101	11313	56.6617
11712.9	90.2249	11712.9	90.1317	11712.9	89.3917	11712.9	88.5194	11712.9	88.4644	11712.9	85.0618	11712.9	84.5657	11712.9	82.6592	11712.9	82.2709	11712.9	76.949	11712.9	77.0061	11712.9	75.2722	11712.9	76.4	11712.9	71.9946	11712.9	70.0973	11712.9	68.3097	11712.9	69.7238	11712.9	62.6142	11712.9	62.0213	11712.9	57.3454	11712.9	61.4972	11712.9	56.6053	11712.9	58.4414	11712.9	56.1389	11712.9	58.0469	11712.9	56.5764	11712.9	57.7571	11712.9	51.089	11712.9	57.0378	11712.9	49.5156	11712.9	52.7081	11712.9	54.4029	11712.9	58.2853	11712.9	52.4095	11712.9	36.9907	11712.9	54.4304
12126	90.0297	12126	89.9315	12126	89.5684	12126	88.3493	12126	87.9577	12126	84.5577	12126	84.2984	12126	82.3177	12126	82.1103	12126	75.8184	12126	75.8937	12126	73.5732	12126	74.673	12126	71.1879	12126	73.2223	12126	67.953	12126	68.4956	12126	62.151	12126	64.0738	12126	59.0087	12126	61.1314	12126	57.1233	12126	55.9921	12126	54.3068	12126	56.3221	12126	53.4188	12126	55.0791	12126	49.5918	12126	54.0816	12126	49.2645	12126	47.1872	12126	52.6561	12126	55.7699	12126	49.6471	12126	55.8151	12126	54.5418
12553.7	89.8855	12553.7	89.6666	12553.7	89.5535	12553.7	87.8624	12553.7	87.6434	12553.7	84.111	12553.7	84.2755	12553.7	81.5242	12553.7	81.3631	12553.7	74.8154	12553.7	76.2529	12553.7	72.8616	12553.7	71.5081	12553.7	71.2409	12553.7	72.5857	12553.7	67.0173	12553.7	65.805	12553.7	59.3164	12553.7	64.1264	12553.7	56.4715	12553.7	58.3658	12553.7	53.0391	12553.7	52.9899	12553.7	51.7025	12553.7	55.4214	12553.7	54.8258	12553.7	44.9127	12553.7	52.7547	12553.7	54.9324	12553.7	48.0554	12553.7	46.7467	12553.7	54.4249	12553.7	54.2968	12553.7	51.1488	12553.7	52.2638	12553.7	51.864
12996.1	89.8305	12996.1	89.3764	12996.1	88.9189	12996.1	87.5154	12996.1	87.2338	12996.1	83.6233	12996.1	84.4345	12996.1	80.6088	12996.1	80.3464	12996.1	74.1404	12996.1	76.7635	12996.1	71.9219	12996.1	71.926	12996.1	69.6061	12996.1	69.9231	12996.1	64.2038	12996.1	64.8196	12996.1	57.3415	12996.1	59.9482	12996.1	54.0681	12996.1	57.1545	12996.1	51.2344	12996.1	53.0768	12996.1	53.5119	12996.1	51.7099	12996.1	55.1064	12996.1	52.2143	12996.1	54.6327	12996.1	54.6439	12996.1	39.6931	12996.1	50.4208	12996.1	47.8332	12996.1	54.9906	12996.1	45.9814	12996.1	45.0919	12996.1	48.5111
13454.6	89.812	13454.6	89.2771	13454.6	89.0828	13454.6	86.935	13454.6	85.9957	13454.6	82.7556	13454.6	83.7383	13454.6	80.6091	13454.6	78.9799	13454.6	73.4879	13454.6	76.0219	13454.6	71.5689	13454.6	73.7371	13454.6	69.7627	13454.6	68.9773	13454.6	66.1569	13454.6	65.8762	13454.6	60.8961	13454.6	59.3234	13454.6	57.1265	13454.6	57.2082	13454.6	53.1166	13454.6	50.9634	13454.6	51.092	13454.6	47.0748	13454.6	53.4756	13454.6	50.3305	13454.6	54.5757	13454.6	53.0979	13454.6	37.5527	13454.6	50.7461	13454.6	46.29	13454.6	46.6993	13454.6	42.6134	13454.6	42.4738	13454.6	53.2786
13929.2	89.8023	13929.2	89.2009	13929.2	88.7097	13929.2	86.5913	13929.2	86.0619	13929.2	81.7554	13929.2	82.7263	13929.2	80.057	13929.2	78.2396	13929.2	74.2615	13929.2	74.2891	13929.2	72.0736	13929.2	73.5378	13929.2	71.9976	13929.2	70.0134	13929.2	68.6107	13929.2	68.4938	13929.2	63.6225	13929.2	61.661	13929.2	58.9462	13929.2	57.474	13929.2	55.8159	13929.2	55.2704	13929.2	54.7374	13929.2	54.6942	13929.2	54.2691	13929.2	51.3069	13929.2	53.1938	13929.2	51.7961	13929.2	46.3648	13929.2	48.7905	13929.2	46.9258	13929.2	53.7577	13929.2	43.4558	13929.2	50.1292	13929.2	50.5772
14419.9	89.8141	14419.9	88.9884	14419.9	88.5545	14419.9	86.5556	14419.9	86.182	14419.9	81.4677	14419.9	82.3884	14419.9	79.7455	14419.9	78.4257	14419.9	74.4547	14419.9	73.0698	14419.9	72.1137	14419.9	72.4619	14419.9	72.6729	14419.9	70.203	14419.9	69.156	14419.9	68.8778	14419.9	63.8722	14419.9	62.0741	14419.9	58.9254	14419.9	59.1964	14419.9	56.5565	14419.9	55.8153	14419.9	55.9543	14419.9	54.1388	14419.9	56.3295	14419.9	54.6557	14419.9	54.377	14419.9	55.5912	14419.9	46.2572	14419.9	52.1179	14419.9	52.7478	14419.9	55.5456	14419.9	38.1391	14419.9	43.7473	14419.9	51.6313
14928.2	89.3935	14928.2	88.9092	14928.2	88.4832	14928.2	86.4322	14928.2	85.9985	14928.2	81.8878	14928.2	83.2623	14928.2	79.9165	14928.2	78.4912	14928.2	74.3067	14928.2	73.8791	14928.2	73.3241	14928.2	72.3415	14928.2	72.7795	14928.2	72.2799	14928.2	69.0984	14928.2	64.9075	14928.2	63.3466	14928.2	63.2879	14928.2	59.2318	14928.2	59.1402	14928.2	56.9297	14928.2	52.1388	14928.2	55.3461	14928.2	51.2005	14928.2	56.427	14928.2	55.2854	14928.2	53.9024	14928.2	53.7929	14928.2	46.8998	14928.2	49.66	14928.2	51.2745	14928.2	51.6928	14928.2	43.1113	14928.2	55.9055	14928.2	52.6457
15455.6	89.1962	15455.6	88.5298	15455.6	88.0304	15455.6	85.8285	15455.6	85.6121	15455.6	81.3019	15455.6	82.3861	15455.6	79.6286	15455.6	79.6397	15455.6	75.9244	15455.6	76.0119	15455.6	74.1399	15455.6	71.4464	15455.6	72.3655	15455.6	71.3805	15455.6	67.9234	15455.6	66.3224	15455.6	61.7601	15455.6	59.8649	15455.6	58.1008	15455.6	56.1279	15455.6	54.0183	15455.6	54.6807	15455.6	53.6302	15455.6	53.1871	15455.6	54.7665	15455.6	50.3137	15455.6	51.699	15455.6	49.6223	15455.6	46.3743	15455.6	43.4861	15455.6	43.6787	15455.6	54.476	15455.6	44.6476	15455.6	50.9674	15455.6	52.6368
16000.5	88.4774	16000.5	87.8687	16000.5	87.4378	16000.5	85.0838	16000.5	85.0452	16000.5	80.8523	16000.5	80.6737	16000.5	79.3208	16000.5	78.2171	16000.5	76.073	16000.5	76.7138	16000.5	73.5042	16000.5	72.6612	16000.5	70.8539	16000.5	67.2594	16000.5	66.2695	16000.5	66.0549	16000.5	60.611	16000.5	58.3486	16000.5	56.927	16000.5	56.6415	16000.5	52.5048	16000.5	51.8588	16000.5	49.1528	16000.5	51	16000.5	52.7244	16000.5	49.8988	16000.5	50.883	16000.5	51.859	16000.5	43.9168	16000.5	40.3938	16000.5	43.4553	16000.5	51.0689	16000.5	50.6113	16000.5	46.1774	16000.5	52.6913
16564.5	86.7982	16564.5	86.2275	16564.5	86.0365	16564.5	83.911	16564.5	83.7628	16564.5	79.3213	16564.5	79.5713	16564.5	78.1902	16564.5	77.1319	16564.5	75.4734	16564.5	75.4391	16564.5	72.5856	16564.5	72.4939	16564.5	70.7653	16564.5	68.7772	16564.5	66.8218	16564.5	64.4095	16564.5	61.5676	16564.5	59.1799	16564.5	56.5973	16564.5	54.4985	16564.5	52.7585	16564.5	50.678	16564.5	48.2053	16564.5	46.6334	16564.5	51.5845	16564.5	48.5128	16564.5	48.9222	16564.5	47.8601	16564.5	42.5824	16564.5	39.8231	16564.5	49.1584	16564.5	51.9428	16564.5	51.6109	16564.5	40.1299	16564.5	53.7279
17148.9	85.6632	17148.9	84.8675	17148.9	84.7023	17148.9	83.2928	17148.9	83.0512	17148.9	79.328	17148.9	81.5123	17148.9	78.6814	17148.9	77.164	17148.9	75.0087	17148.9	72.8055	17148.9	70.5996	17148.9	68.9349	17148.9	69.3351	17148.9	67.2191	17148.9	65.2477	17148.9	62.2887	17148.9	60.479	17148.9	57.4282	17148.9	53.9574	17148.9	47.9763	17148.9	50.8186	17148.9	48.3405	17148.9	45.4277	17148.9	44.5036	17148.9	50.9834	17148.9	48.5445	17148.9	49.3826	17148.9	41.9955	17148.9	45.2458	17148.9	45.5747	17148.9	52.8356	17148.9	46.6134	17148.9	47.6947	17148.9	36.6021	17148.9	51.4331
17752.4	86.2727	17752.4	85.1779	17752.4	85.2631	17752.4	83.773	17752.4	84.2151	17752.4	79.5393	17752.4	81.7625	17752.4	77.8525	17752.4	76.3961	17752.4	72.7235	17752.4	71.4927	17752.4	68.7624	17752.4	67.0415	17752.4	68.6359	17752.4	65.4095	17752.4	64.4634	17752.4	61.1248	17752.4	59.1568	17752.4	56.7713	17752.4	53.0376	17752.4	52.5632	17752.4	51.028	17752.4	48.3017	17752.4	45.833	17752.4	38.734	17752.4	39.6173	17752.4	44.8542	17752.4	49.4648	17752.4	43.3484	17752.4	43.6811	17752.4	46.1251	17752.4	57.6789	17752.4	45.5266	17752.4	48.5879	17752.4	44.8211	17752.4	47.8493
18379.4	86.284	18379.4	85.4941	18379.4	85.9061	18379.4	83.5559	18379.4	84.1938	18379.4	79.8117	18379.4	81.4397	18379.4	76.9659	18379.4	75.9899	18379.4	71.7947	18379.4	70.4481	18379.4	68.3289	18379.4	65.1066	18379.4	67.414	18379.4	63.7902	18379.4	63.185	18379.4	61.8852	18379.4	57.3233	18379.4	53.107	18379.4	51.5885	18379.4	51.331	18379.4	47.6856	18379.4	45.5682	18379.4	43.4763	18379.4	38.9007	18379.4	43.9905	18379.4	42.7342	18379.4	47.0883	18379.4	44.2651	18379.4	43.1864	18379.4	43.5037	18379.4	56.2266	18379.4	45.641	18379.4	45.2826	18379.4	39.3941	18379.4	38.3767
19026.9	86.3844	19026.9	85.8838	19026.9	86.2174	19026.9	83.9263	19026.9	84.1485	19026.9	79.446	19026.9	80.7741	19026.9	76.7101	19026.9	76.8958	19026.9	71.63	19026.9	70.4217	19026.9	66.9442	19026.9	65.0696	19026.9	65.7117	19026.9	63.3688	19026.9	61.6275	19026.9	59.6219	19026.9	56.2525	19026.9	54.991	19026.9	50.4565	19026.9	47.1498	19026.9	45.6258	19026.9	44.8094	19026.9	38.7777	19026.9	41.2629	19026.9	46.5706	19026.9	40.1321	19026.9	38.7737	19026.9	36.0139	19026.9	42.0554	19026.9	42.4822	19026.9	54.3633	19026.9	41.8483	19026.9	40.0042	19026.9	43.0185	19026.9	44.379
19697.8	86.771	19697.8	86.0767	19697.8	86.4271	19697.8	83.861	19697.8	84.5419	19697.8	78.5859	19697.8	80.0427	19697.8	75.2062	19697.8	73.6638	19697.8	68.9554	19697.8	67.3545	19697.8	64.4974	19697.8	64.0889	19697.8	63.572	19697.8	64.2971	19697.8	59.6738	19697.8	60.2993	19697.8	55.1391	19697.8	53.6532	19697.8	49.1573	19697.8	48.7582	19697.8	44.6549	19697.8	48.6437	19697.8	39.3387	19697.8	39.9406	19697.8	43.5358	19697.8	36.8281	19697.8	39.3527	19697.8	19.2985	19697.8	34.4247	19697.8	41.5633	19697.8	52.6375	19697.8	42.3886	19697.8	39.8024	19697.8	51.2176	19697.8	48.157
19999.5	86.6695	19999.5	86.1134	19999.5	86.0756	19999.5	83.6138	19999.5	84.0889	19999.5	77.7569	19999.5	79.3608	19999.5	73.8743	19999.5	72.1564	19999.5	66.054	19999.5	65.9034	19999.5	62.2575	19999.5	63.002	19999.5	63.1938	19999.5	63.0586	19999.5	58.6858	19999.5	60.9059	19999.5	56.145	19999.5	52.7206	19999.5	49.9231	19999.5	50.274	19999.5	48.1856	19999.5	48.6725	19999.5	42.3079	19999.5	44.2392	19999.5	49.7947	19999.5	43.1055	19999.5	34.0317	19999.5	46.4267	19999.5	48.21	19999.5	46.7771	19999.5	40.3914	19999.5	46.2634	19999.5	33.1397	19999.5	51.1529	19999.5	43.6298
