"SPL Horizontal"
"On-Axis"		"10°"		"-10°"		"20°"		"-20°"		"30°"		"-30°"		"40°"		"-40°"		"50°"		"-50°"		"60°"		"-60°"		"70°"		"-70°"		"80°"		"-80°"		"90°"		"-90°"		"100°"		"-100°"		"110°"		"-110°"		"120°"		"-120°"		"130°"		"-130°"		"140°"		"-140°"		"150°"		"-150°"		"160°"		"-160°"		"170°"		"-170°"		"180°"
"Frequency / Hz"	"Sound Pressure Level / dB (re 20 µPa/V)  [2.83  V @ 1. m]"	"Frequency / Hz"	"Sound Pressure Level / dB (re 20 µPa/V)  [2.83  V @ 1. m]"	"Frequency / Hz"	"Sound Pressure Level / dB (re 20 µPa/V)  [2.83  V @ 1. m]"	"Frequency / Hz"	"Sound Pressure Level / dB (re 20 µPa/V)  [2.83  V @ 1. m]"	"Frequency / Hz"	"Sound Pressure Level / dB (re 20 µPa/V)  [2.83  V @ 1. m]"	"Frequency / Hz"	"Sound Pressure Level / dB (re 20 µPa/V)  [2.83  V @ 1. m]"	"Frequency / Hz"	"Sound Pressure Level / dB (re 20 µPa/V)  [2.83  V @ 1. m]"	"Frequency / Hz"	"Sound Pressure Level / dB (re 20 µPa/V)  [2.83  V @ 1. m]"	"Frequency / Hz"	"Sound Pressure Level / dB (re 20 µPa/V)  [2.83  V @ 1. m]"	"Frequency / Hz"	"Sound Pressure Level / dB (re 20 µPa/V)  [2.83  V @ 1. m]"	"Frequency / Hz"	"Sound Pressure Level / dB (re 20 µPa/V)  [2.83  V @ 1. m]"	"Frequency / Hz"	"Sound Pressure Level / dB (re 20 µPa/V)  [2.83  V @ 1. m]"	"Frequency / Hz"	"Sound Pressure Level / dB (re 20 µPa/V)  [2.83  V @ 1. m]"	"Frequency / Hz"	"Sound Pressure Level / dB (re 20 µPa/V)  [2.83  V @ 1. m]"	"Frequency / Hz"	"Sound Pressure Level / dB (re 20 µPa/V)  [2.83  V @ 1. m]"	"Frequency / Hz"	"Sound Pressure Level / dB (re 20 µPa/V)  [2.83  V @ 1. m]"	"Frequency / Hz"	"Sound Pressure Level / dB (re 20 µPa/V)  [2.83  V @ 1. m]"	"Frequency / Hz"	"Sound Pressure Level / dB (re 20 µPa/V)  [2.83  V @ 1. m]"	"Frequency / Hz"	"Sound Pressure Level / dB (re 20 µPa/V)  [2.83  V @ 1. m]"	"Frequency / Hz"	"Sound Pressure Level / dB (re 20 µPa/V)  [2.83  V @ 1. m]"	"Frequency / Hz"	"Sound Pressure Level / dB (re 20 µPa/V)  [2.83  V @ 1. m]"	"Frequency / Hz"	"Sound Pressure Level / dB (re 20 µPa/V)  [2.83  V @ 1. m]"	"Frequency / Hz"	"Sound Pressure Level / dB (re 20 µPa/V)  [2.83  V @ 1. m]"	"Frequency / Hz"	"Sound Pressure Level / dB (re 20 µPa/V)  [2.83  V @ 1. m]"	"Frequency / Hz"	"Sound Pressure Level / dB (re 20 µPa/V)  [2.83  V @ 1. m]"	"Frequency / Hz"	"Sound Pressure Level / dB (re 20 µPa/V)  [2.83  V @ 1. m]"	"Frequency / Hz"	"Sound Pressure Level / dB (re 20 µPa/V)  [2.83  V @ 1. m]"	"Frequency / Hz"	"Sound Pressure Level / dB (re 20 µPa/V)  [2.83  V @ 1. m]"	"Frequency / Hz"	"Sound Pressure Level / dB (re 20 µPa/V)  [2.83  V @ 1. m]"	"Frequency / Hz"	"Sound Pressure Level / dB (re 20 µPa/V)  [2.83  V @ 1. m]"	"Frequency / Hz"	"Sound Pressure Level / dB (re 20 µPa/V)  [2.83  V @ 1. m]"	"Frequency / Hz"	"Sound Pressure Level / dB (re 20 µPa/V)  [2.83  V @ 1. m]"	"Frequency / Hz"	"Sound Pressure Level / dB (re 20 µPa/V)  [2.83  V @ 1. m]"	"Frequency / Hz"	"Sound Pressure Level / dB (re 20 µPa/V)  [2.83  V @ 1. m]"	"Frequency / Hz"	"Sound Pressure Level / dB (re 20 µPa/V)  [2.83  V @ 1. m]"	"Frequency / Hz"	"Sound Pressure Level / dB (re 20 µPa/V)  [2.83  V @ 1. m]"
20.5078	48.7718	20.5078	48.9436	20.5078	48.5865	20.5078	49.0859	20.5078	48.4141	20.5078	49.1928	20.5078	48.2888	20.5078	49.2689	20.5078	48.2507	20.5078	49.3284	20.5078	48.3404	20.5078	49.3941	20.5078	48.5905	20.5078	49.4935	20.5078	49.0135	20.5078	49.6529	20.5078	49.5917	20.5078	49.8905	20.5078	50.2794	20.5078	50.2112	20.5078	51.0166	20.5078	50.6068	20.5078	51.7433	20.5078	51.0602	20.5078	52.4093	20.5078	51.5499	20.5078	52.9758	20.5078	52.0529	20.5078	53.4145	20.5078	52.5442	20.5078	53.707	20.5078	52.9966	20.5078	53.8442	20.5078	53.3804	20.5078	53.827	20.5078	53.6659
21.9727	46.4769	21.9727	46.5294	21.9727	46.3456	21.9727	46.5042	21.9727	46.1607	21.9727	46.4264	21.9727	45.9784	21.9727	46.3468	21.9727	45.8858	21.9727	46.3418	21.9727	45.985	21.9727	46.5005	21.9727	46.3528	21.9727	46.8909	21.9727	46.9977	21.9727	47.5203	21.9727	47.8553	21.9727	48.3294	21.9727	48.8267	21.9727	49.2262	21.9727	49.8194	21.9727	50.1262	21.9727	50.7645	21.9727	50.9705	21.9727	51.6152	21.9727	51.725	21.9727	52.3415	21.9727	52.3722	21.9727	52.9255	21.9727	52.9035	21.9727	53.358	21.9727	53.3137	21.9727	53.6372	21.9727	53.5979	21.9727	53.7662	21.9727	53.7509
23.4375	50.0746	23.4375	50.0871	23.4375	50.0045	23.4375	50.0304	23.4375	49.9063	23.4375	49.9117	23.4375	49.8282	23.4375	49.7612	23.4375	49.8343	23.4375	49.6364	23.4375	49.994	23.4375	49.6201	23.4375	50.3591	23.4375	49.7995	23.4375	50.9386	23.4375	50.2256	23.4375	51.6919	23.4375	50.8822	23.4375	52.547	23.4375	51.6955	23.4375	53.4268	23.4375	52.5749	23.4375	54.2674	23.4375	53.445	23.4375	55.0228	23.4375	54.2556	23.4375	55.6623	23.4375	54.9767	23.4375	56.1665	23.4375	55.5912	23.4375	56.5244	23.4375	56.088	23.4375	56.7311	23.4375	56.458	23.4375	56.7863	23.4375	56.6932
24.9023	52.1505	24.9023	52.0957	24.9023	52.1903	24.9023	52.024	24.9023	52.2342	24.9023	51.9533	24.9023	52.3156	24.9023	51.9232	24.9023	52.476	24.9023	51.99	24.9023	52.7564	24.9023	52.2128	24.9023	53.1837	24.9023	52.6283	24.9023	53.7592	24.9023	53.231	24.9023	54.4557	24.9023	53.9743	24.9023	55.2261	24.9023	54.7918	24.9023	56.0166	24.9023	55.62	24.9023	56.7782	24.9023	56.4099	24.9023	57.4718	24.9023	57.1287	24.9023	58.0687	24.9023	57.7563	24.9023	58.5497	24.9023	58.2807	24.9023	58.9031	24.9023	58.6939	24.9023	59.1234	24.9023	58.9901	24.9023	59.2095	24.9023	59.1637
26.3672	55.3964	26.3672	55.3741	26.3672	55.4653	26.3672	55.4049	26.3672	55.5792	26.3672	55.4991	26.3672	55.7397	26.3672	55.668	26.3672	55.9508	26.3672	55.9204	26.3672	56.2161	26.3672	56.2578	26.3672	56.5369	26.3672	56.6728	26.3672	56.9108	26.3672	57.1487	26.3672	57.3301	26.3672	57.6624	26.3672	57.7822	26.3672	58.1879	26.3672	58.2503	26.3672	58.7	26.3672	58.7151	26.3672	59.1766	26.3672	59.1577	26.3672	59.5999	26.3672	59.561	26.3672	59.9572	26.3672	59.9105	26.3672	60.2395	26.3672	60.1954	26.3672	60.4412	26.3672	60.4074	26.3672	60.5591	26.3672	60.5409	26.3672	60.5922
27.832	57.4691	27.832	57.481	27.832	57.4379	27.832	57.4799	27.832	57.3909	27.832	57.4805	27.832	57.3417	27.832	57.5053	27.832	57.3137	27.832	57.5806	27.832	57.3376	27.832	57.7315	27.832	57.4459	27.832	57.9751	27.832	57.6632	27.832	58.3145	27.832	57.9974	27.832	58.7368	27.832	58.4353	27.832	59.2161	27.832	58.9462	27.832	59.7203	27.832	59.4909	27.832	60.2168	27.832	60.0302	27.832	60.6769	27.832	60.5309	27.832	61.0776	27.832	60.9676	27.832	61.4015	27.832	61.323	27.832	61.6368	27.832	61.5863	27.832	61.7759	27.832	61.7511	27.832	61.8145
29.2969	59.6537	29.2969	59.6566	29.2969	59.6414	29.2969	59.6561	29.2969	59.6219	29.2969	59.6649	29.2969	59.6051	29.2969	59.7012	29.2969	59.6082	29.2969	59.786	29.2969	59.6532	29.2969	59.9382	29.2969	59.763	29.2969	60.1703	29.2969	59.9556	29.2969	60.4835	29.2969	60.2377	29.2969	60.8671	29.2969	60.6018	29.2969	61.3001	29.2969	61.0277	29.2969	61.7558	29.2969	61.4874	29.2969	62.2057	29.2969	61.9508	29.2969	62.6234	29.2969	62.3908	29.2969	62.9865	29.2969	62.7847	29.2969	63.2775	29.2969	63.1153	29.2969	63.4837	29.2969	63.3696	29.2969	63.5975	29.2969	63.5385	29.2969	63.6156
30.7617	60.7656	30.7617	60.7817	30.7617	60.7578	30.7617	60.8106	30.7617	60.7615	30.7617	60.8641	30.7617	60.7881	30.7617	60.9586	30.7617	60.8547	30.7617	61.1115	30.7617	60.9809	30.7617	61.3365	30.7617	61.1833	30.7617	61.6391	30.7617	61.47	30.7617	62.0135	30.7617	61.837	30.7617	62.4434	30.7617	62.2687	30.7617	62.9053	30.7617	62.7408	30.7617	63.3728	30.7617	63.2255	30.7617	63.8207	30.7617	63.6954	30.7617	64.2277	30.7617	64.1266	30.7617	64.5769	30.7617	64.5001	30.7617	64.8566	30.7617	64.8023	30.7617	65.0588	30.7617	65.0246	30.7617	65.1787	30.7617	65.1623	30.7617	65.2137
32.2266	63.3699	32.2266	63.3903	32.2266	63.3667	32.2266	63.4305	32.2266	63.3833	32.2266	63.4975	32.2266	63.427	32.2266	63.6012	32.2266	63.5084	32.2266	63.7515	32.2266	63.6394	32.2266	63.9558	32.2266	63.8295	32.2266	64.2162	32.2266	64.0833	32.2266	64.5286	32.2266	64.3979	32.2266	64.8823	32.2266	64.7623	32.2266	65.2616	32.2266	65.1594	32.2266	65.6483	32.2266	65.5681	32.2266	66.0236	32.2266	65.9664	32.2266	66.3703	32.2266	66.3343	32.2266	66.6733	32.2266	66.6546	32.2266	66.921	32.2266	66.9142	32.2266	67.1045	32.2266	67.1041	32.2266	67.2178	32.2266	67.2189	32.2266	67.2567
33.6914	65.2922	33.6914	65.3195	33.6914	65.2821	33.6914	65.3651	33.6914	65.2917	33.6914	65.4336	33.6914	65.3271	33.6914	65.5317	33.6914	65.3967	33.6914	65.6667	33.6914	65.5095	33.6914	65.8445	33.6914	65.6728	33.6914	66.0675	33.6914	65.8898	33.6914	66.3335	33.6914	66.1582	33.6914	66.6351	33.6914	66.4697	33.6914	66.9607	33.6914	66.8108	33.6914	67.2951	33.6914	67.1646	33.6914	67.6221	33.6914	67.513	33.6914	67.9258	33.6914	67.8385	33.6914	68.192	33.6914	68.1257	33.6914	68.4091	33.6914	68.3621	33.6914	68.5683	33.6914	68.5386	33.6914	68.6636	33.6914	68.6492	33.6914	68.6911
35.1562	67.5304	35.1562	67.5408	35.1562	67.5289	35.1562	67.5615	35.1562	67.5386	35.1562	67.5967	35.1562	67.5647	35.1562	67.653	35.1562	67.6147	35.1562	67.7381	35.1562	67.6972	35.1562	67.8591	35.1562	67.8196	35.1562	68.0208	35.1562	67.9867	35.1562	68.2244	35.1562	68.1987	35.1562	68.4661	35.1562	68.4505	35.1562	68.7376	35.1562	68.7322	35.1562	69.0263	35.1562	69.0301	35.1562	69.3174	35.1562	69.3281	35.1562	69.595	35.1562	69.6099	35.1562	69.8442	35.1562	69.8606	35.1562	70.0523	35.1562	70.0673	35.1562	70.209	35.1562	70.2205	35.1562	70.3073	35.1562	70.3135	35.1562	70.3427
36.6211	68.6599	36.6211	68.6687	36.6211	68.664	36.6211	68.6921	36.6211	68.6823	36.6211	68.7343	36.6211	68.7185	36.6211	68.8012	36.6211	68.7786	36.6211	68.8989	36.6211	68.869	36.6211	69.0329	36.6211	68.9959	36.6211	69.2059	36.6211	69.1629	36.6211	69.4172	36.6211	69.37	36.6211	69.6617	36.6211	69.6129	36.6211	69.9305	36.6211	69.8829	36.6211	70.2116	36.6211	70.1678	36.6211	70.4912	36.6211	70.4532	36.6211	70.755	36.6211	70.724	36.6211	70.9896	36.6211	70.9661	36.6211	71.1835	36.6211	71.1671	36.6211	71.3278	36.6211	71.3177	36.6211	71.4161	36.6211	71.4113	36.6211	71.4444
38.0859	70.0222	38.0859	70.0355	38.0859	70.0211	38.0859	70.0621	38.0859	70.0333	38.0859	70.1053	38.0859	70.0622	38.0859	70.1699	38.0859	70.1131	38.0859	70.2609	38.0859	70.192	38.0859	70.3827	38.0859	70.3042	38.0859	70.5378	38.0859	70.4531	38.0859	70.7258	38.0859	70.6389	38.0859	70.9429	38.0859	70.8579	38.0859	71.182	38.0859	71.1025	38.0859	71.4331	38.0859	71.3618	38.0859	71.6839	38.0859	71.6227	38.0859	71.9217	38.0859	71.8713	38.0859	72.134	38.0859	72.0944	38.0859	72.3096	38.0859	72.2807	38.0859	72.4401	38.0859	72.4212	38.0859	72.519	38.0859	72.5097	38.0859	72.5426
39.5508	71.2603	39.5508	71.266	39.5508	71.2683	39.5508	71.2863	39.5508	71.2912	39.5508	71.324	39.5508	71.3324	39.5508	71.3834	39.5508	71.3964	39.5508	71.4692	39.5508	71.4885	39.5508	71.5855	39.5508	71.6132	39.5508	71.7349	39.5508	71.7727	39.5508	71.9173	39.5508	71.9662	39.5508	72.1297	39.5508	72.1892	39.5508	72.3655	39.5508	72.4336	39.5508	72.6154	39.5508	72.6884	39.5508	72.8675	39.5508	72.9409	39.5508	73.109	39.5508	73.178	39.5508	73.3272	39.5508	73.3877	39.5508	73.5112	39.5508	73.5596	39.5508	73.6516	39.5508	73.6854	39.5508	73.7422	39.5508	73.7595	39.5508	73.7787
41.0156	72.3441	41.0156	72.338	41.0156	72.3714	41.0156	72.3547	41.0156	72.4199	41.0156	72.3966	41.0156	72.491	41.0156	72.4672	41.0156	72.5866	41.0156	72.5697	41.0156	72.7087	41.0156	72.7063	41.0156	72.8586	41.0156	72.877	41.0156	73.0358	41.0156	73.0796	41.0156	73.2379	41.0156	73.3085	41.0156	73.4601	41.0156	73.5556	41.0156	73.6951	41.0156	73.8109	41.0156	73.9341	41.0156	74.0625	41.0156	74.1671	41.0156	74.2989	41.0156	74.384	41.0156	74.5091	41.0156	74.5751	41.0156	74.6837	41.0156	74.7318	41.0156	74.8155	41.0156	74.8469	41.0156	74.8996	41.0156	74.9151	41.0156	74.9331
42.4805	73.7499	42.4805	73.746	42.4805	73.7708	42.4805	73.7598	42.4805	73.8086	42.4805	73.7936	42.4805	73.8648	42.4805	73.85	42.4805	73.9412	42.4805	73.9318	42.4805	74.0396	42.4805	74.041	42.4805	74.1614	42.4805	74.1781	42.4805	74.3064	42.4805	74.3416	42.4805	74.4728	42.4805	74.5277	42.4805	74.6566	42.4805	74.7302	42.4805	74.8521	42.4805	74.9411	42.4805	75.0518	42.4805	75.1511	42.4805	75.2474	42.4805	75.35	42.4805	75.4302	42.4805	75.5284	42.4805	75.5918	42.4805	75.6777	42.4805	75.7246	42.4805	75.7913	42.4805	75.8221	42.4805	75.8643	42.4805	75.8796	42.4805	75.894
43.9453	74.8007	43.9453	74.7954	43.9453	74.8212	43.9453	74.8064	43.9453	74.8569	43.9453	74.8357	43.9453	74.9087	43.9453	74.8856	43.9453	74.9782	43.9453	74.9588	43.9453	75.0669	43.9453	75.0571	43.9453	75.1763	43.9453	75.1811	43.9453	75.3064	43.9453	75.3296	43.9453	75.4562	43.9453	75.4992	43.9453	75.6225	43.9453	75.6844	43.9453	75.8007	43.9453	75.878	43.9453	75.9841	43.9453	76.0716	43.9453	76.1652	43.9453	76.2561	43.9453	76.3358	43.9453	76.4227	43.9453	76.4875	43.9453	76.5635	43.9453	76.6127	43.9453	76.6716	43.9453	76.7047	43.9453	76.742	43.9453	76.7587	43.9453	76.7714
45.4102	75.6466	45.4102	75.6403	45.4102	75.6681	45.4102	75.65	45.4102	75.7044	45.4102	75.6776	45.4102	75.7564	45.4102	75.7251	45.4102	75.8251	45.4102	75.7946	45.4102	75.9119	45.4102	75.8878	45.4102	76.0177	45.4102	76.005	45.4102	76.1427	45.4102	76.1451	45.4102	76.2857	45.4102	76.3051	45.4102	76.4439	45.4102	76.4801	45.4102	76.6129	45.4102	76.6635	45.4102	76.7868	45.4102	76.8478	45.4102	76.9583	45.4102	77.0244	45.4102	77.1198	45.4102	77.1849	45.4102	77.2634	45.4102	77.3215	45.4102	77.3816	45.4102	77.4273	45.4102	77.468	45.4102	77.4972	45.4102	77.5178	45.4102	77.5278
46.875	76.407	46.875	76.4154	46.875	76.422	46.875	76.4473	46.875	76.4608	46.875	76.5026	46.875	76.5232	46.875	76.5814	46.875	76.6094	46.875	76.6833	46.875	76.7188	46.875	76.8076	46.875	76.8504	46.875	76.9528	46.875	77.0019	46.875	77.1162	46.875	77.1702	46.875	77.294	46.875	77.3509	46.875	77.481	46.875	77.5386	46.875	77.6711	46.875	77.727	46.875	77.8571	46.875	77.9091	46.875	78.0318	46.875	78.0778	46.875	78.1877	46.875	78.2263	46.875	78.3182	46.875	78.3481	46.875	78.4174	46.875	78.4377	46.875	78.4808	46.875	78.4911	46.875	78.5058
48.3398	77.2856	48.3398	77.2926	48.3398	77.2918	48.3398	77.3135	48.3398	77.3113	48.3398	77.349	48.3398	77.3444	48.3398	77.4001	48.3398	77.3918	48.3398	77.4677	48.3398	77.4541	48.3398	77.5523	48.3398	77.5321	48.3398	77.6533	48.3398	77.6257	48.3398	77.7691	48.3398	77.7341	48.3398	77.8971	48.3398	77.8553	48.3398	78.0332	48.3398	77.9859	48.3398	78.1727	48.3398	78.1216	48.3398	78.3098	48.3398	78.2572	48.3398	78.4386	48.3398	78.3872	48.3398	78.5529	48.3398	78.5058	48.3398	78.6467	48.3398	78.6073	48.3398	78.7151	48.3398	78.6866	48.3398	78.7543	48.3398	78.7394	48.3398	78.7625
51.2695	78.5683	51.2695	78.5765	51.2695	78.5715	51.2695	78.5963	51.2695	78.5861	51.2695	78.6278	51.2695	78.6122	51.2695	78.6712	51.2695	78.6502	51.2695	78.7266	51.2695	78.7001	51.2695	78.7936	51.2695	78.7622	51.2695	78.8716	51.2695	78.8359	51.2695	78.9594	51.2695	78.9205	51.2695	79.055	51.2695	79.0142	51.2695	79.156	51.2695	79.1147	51.2695	79.2593	51.2695	79.2188	51.2695	79.3611	51.2695	79.3228	51.2695	79.4572	51.2695	79.4224	51.2695	79.5432	51.2695	79.5132	51.2695	79.6146	51.2695	79.5907	51.2695	79.6675	51.2695	79.6508	51.2695	79.6988	51.2695	79.6902	51.2695	79.7065
52.7344	79.0927	52.7344	79.1022	52.7344	79.0929	52.7344	79.1213	52.7344	79.103	52.7344	79.15	52.7344	79.1233	52.7344	79.1885	52.7344	79.154	52.7344	79.2367	52.7344	79.1956	52.7344	79.2947	52.7344	79.248	52.7344	79.362	52.7344	79.3111	52.7344	79.438	52.7344	79.3841	52.7344	79.5212	52.7344	79.4656	52.7344	79.6096	52.7344	79.5535	52.7344	79.7003	52.7344	79.6453	52.7344	79.7899	52.7344	79.7375	52.7344	79.8744	52.7344	79.8265	52.7344	79.9497	52.7344	79.9084	52.7344	80.0119	52.7344	79.9789	52.7344	80.0573	52.7344	80.0343	52.7344	80.0833	52.7344	80.0715	52.7344	80.0881
54.1992	79.4594	54.1992	79.4633	54.1992	79.4653	54.1992	79.4769	54.1992	79.481	54.1992	79.5001	54.1992	79.5067	54.1992	79.533	54.1992	79.5423	54.1992	79.5757	54.1992	79.5878	54.1992	79.6281	54.1992	79.6429	54.1992	79.69	54.1992	79.7068	54.1992	79.7605	54.1992	79.7786	54.1992	79.8384	54.1992	79.8569	54.1992	79.9215	54.1992	79.9396	54.1992	80.0073	54.1992	80.0241	54.1992	80.0924	54.1992	80.1077	54.1992	80.1734	54.1992	80.1869	54.1992	80.2466	54.1992	80.2581	54.1992	80.3085	54.1992	80.3177	54.1992	80.3559	54.1992	80.3624	54.1992	80.3863	54.1992	80.3896	54.1992	80.3977
55.6641	79.7392	55.6641	79.7387	55.6641	79.75	55.6641	79.7489	55.6641	79.7711	55.6641	79.7699	55.6641	79.802	55.6641	79.8018	55.6641	79.8427	55.6641	79.8445	55.6641	79.8924	55.6641	79.8978	55.6641	79.9506	55.6641	79.9607	55.6641	80.0164	55.6641	80.032	55.6641	80.0886	55.6641	80.1099	55.6641	80.1657	55.6641	80.1922	55.6641	80.2456	55.6641	80.2762	55.6641	80.3261	55.6641	80.3591	55.6641	80.4045	55.6641	80.4378	55.6641	80.4777	55.6641	80.5092	55.6641	80.5428	55.6641	80.5701	55.6641	80.5964	55.6641	80.6176	55.6641	80.6358	55.6641	80.6492	55.6641	80.6584	55.6641	80.663
58.5938	80.277	58.5938	80.2778	58.5938	80.2847	58.5938	80.2871	58.5938	80.3005	58.5938	80.3049	58.5938	80.3243	58.5938	80.331	58.5938	80.3555	58.5938	80.3652	58.5938	80.3938	58.5938	80.407	58.5938	80.4384	58.5938	80.4557	58.5938	80.4887	58.5938	80.5102	58.5938	80.5436	58.5938	80.5695	58.5938	80.602	58.5938	80.6318	58.5938	80.6626	58.5938	80.6955	58.5938	80.7236	58.5938	80.7585	58.5938	80.7831	58.5938	80.8183	58.5938	80.8391	58.5938	80.8727	58.5938	80.8893	58.5938	80.919	58.5938	80.9314	58.5938	80.9547	58.5938	80.9629	58.5938	80.9779	58.5938	80.982	58.5938	80.9871
60.0586	80.5281	60.0586	80.527	60.0586	80.5374	60.0586	80.534	60.0586	80.5546	60.0586	80.549	60.0586	80.5793	60.0586	80.5717	60.0586	80.6111	60.0586	80.6017	60.0586	80.6492	60.0586	80.6385	60.0586	80.6928	60.0586	80.6813	60.0586	80.741	60.0586	80.7292	60.0586	80.7926	60.0586	80.7814	60.0586	80.8465	60.0586	80.8365	60.0586	80.9012	60.0586	80.893	60.0586	80.9553	60.0586	80.9494	60.0586	81.0071	60.0586	81.0037	60.0586	81.0548	60.0586	81.0538	60.0586	81.0967	60.0586	81.0974	60.0586	81.1307	60.0586	81.1322	60.0586	81.155	60.0586	81.1564	60.0586	81.1679	60.0586	81.1685
62.9883	81.105	62.9883	81.1063	62.9883	81.111	62.9883	81.115	62.9883	81.1244	62.9883	81.1308	62.9883	81.1447	62.9883	81.1533	62.9883	81.1714	62.9883	81.182	62.9883	81.2039	62.9883	81.216	62.9883	81.2414	62.9883	81.2546	62.9883	81.283	62.9883	81.2968	62.9883	81.3277	62.9883	81.3417	62.9883	81.3743	62.9883	81.388	62.9883	81.4216	62.9883	81.4347	62.9883	81.4682	62.9883	81.4806	62.9883	81.5126	62.9883	81.5242	62.9883	81.5535	62.9883	81.564	62.9883	81.5892	62.9883	81.5983	62.9883	81.6182	62.9883	81.6254	62.9883	81.6391	62.9883	81.6438	62.9883	81.6508	62.9883	81.6524
64.4531	81.2595	64.4531	81.2597	64.4531	81.2666	64.4531	81.2672	64.4531	81.2809	64.4531	81.2816	64.4531	81.302	64.4531	81.3025	64.4531	81.3293	64.4531	81.3292	64.4531	81.3621	64.4531	81.361	64.4531	81.3995	64.4531	81.3969	64.4531	81.4406	64.4531	81.436	64.4531	81.4841	64.4531	81.4776	64.4531	81.529	64.4531	81.5205	64.4531	81.574	64.4531	81.564	64.4531	81.6177	64.4531	81.6069	64.4531	81.6587	64.4531	81.6481	64.4531	81.6957	64.4531	81.6862	64.4531	81.7273	64.4531	81.7196	64.4531	81.7524	64.4531	81.7468	64.4531	81.7696	64.4531	81.7663	64.4531	81.7779	64.4531	81.7768
67.3828	81.4781	67.3828	81.4749	67.3828	81.4872	67.3828	81.4778	67.3828	81.502	67.3828	81.4866	67.3828	81.522	67.3828	81.5008	67.3828	81.5464	67.3828	81.5198	67.3828	81.5743	67.3828	81.543	67.3828	81.6048	67.3828	81.5696	67.3828	81.637	67.3828	81.5989	67.3828	81.67	67.3828	81.6302	67.3828	81.7028	67.3828	81.6627	67.3828	81.7349	67.3828	81.6958	67.3828	81.7654	67.3828	81.7287	67.3828	81.7936	67.3828	81.7606	67.3828	81.8188	67.3828	81.7905	67.3828	81.84	67.3828	81.8175	67.3828	81.8563	67.3828	81.8401	67.3828	81.8669	67.3828	81.8571	67.3828	81.8708	67.3828	81.8676
68.8477	81.5595	68.8477	81.5542	68.8477	81.5704	68.8477	81.5546	68.8477	81.5866	68.8477	81.5606	68.8477	81.6075	68.8477	81.5719	68.8477	81.6322	68.8477	81.5877	68.8477	81.6598	68.8477	81.6076	68.8477	81.6892	68.8477	81.6307	68.8477	81.7194	68.8477	81.6563	68.8477	81.7494	68.8477	81.6838	68.8477	81.7785	68.8477	81.7123	68.8477	81.8058	68.8477	81.7413	68.8477	81.8308	68.8477	81.7701	68.8477	81.853	68.8477	81.798	68.8477	81.8717	68.8477	81.8244	68.8477	81.8866	68.8477	81.8485	68.8477	81.8971	68.8477	81.8693	68.8477	81.9026	68.8477	81.8858	68.8477	81.9027	68.8477	81.8971
71.7773	82.0388	71.7773	82.0323	71.7773	82.0507	71.7773	82.031	71.7773	82.0676	71.7773	82.0347	71.7773	82.089	71.7773	82.0427	71.7773	82.1138	71.7773	82.0541	71.7773	82.141	71.7773	82.0681	71.7773	82.1692	71.7773	82.0838	71.7773	82.197	71.7773	82.1006	71.7773	82.2232	71.7773	82.1179	71.7773	82.2467	71.7773	82.1354	71.7773	82.2667	71.7773	82.1528	71.7773	82.2825	71.7773	82.1703	71.7773	82.2938	71.7773	82.1879	71.7773	82.3004	71.7773	82.2057	71.7773	82.3025	71.7773	82.2234	71.7773	82.3004	71.7773	82.2409	71.7773	82.2943	71.7773	82.2574	71.7773	82.2848	71.7773	82.2723
74.707	82.4658	74.707	82.4567	74.707	82.4797	74.707	82.4525	74.707	82.498	74.707	82.4528	74.707	82.5196	74.707	82.457	74.707	82.5436	74.707	82.464	74.707	82.5683	74.707	82.4728	74.707	82.5922	74.707	82.4822	74.707	82.6139	74.707	82.4913	74.707	82.6319	74.707	82.4994	74.707	82.645	74.707	82.5061	74.707	82.6524	74.707	82.5115	74.707	82.6539	74.707	82.516	74.707	82.6498	74.707	82.5203	74.707	82.6407	74.707	82.5252	74.707	82.6279	74.707	82.5316	74.707	82.6124	74.707	82.54	74.707	82.5959	74.707	82.5509	74.707	82.5795	74.707	82.5642
77.6367	82.5289	77.6367	82.5214	77.6367	82.5395	77.6367	82.517	77.6367	82.5529	77.6367	82.5153	77.6367	82.5687	77.6367	82.5155	77.6367	82.5858	77.6367	82.5169	77.6367	82.6032	77.6367	82.5186	77.6367	82.6195	77.6367	82.5195	77.6367	82.6332	77.6367	82.5187	77.6367	82.643	77.6367	82.5158	77.6367	82.6477	77.6367	82.5105	77.6367	82.6464	77.6367	82.503	77.6367	82.6387	77.6367	82.4941	77.6367	82.6249	77.6367	82.4851	77.6367	82.6056	77.6367	82.4776	77.6367	82.5825	77.6367	82.4732	77.6367	82.5574	77.6367	82.4736	77.6367	82.5326	77.6367	82.4798	77.6367	82.5102	77.6367	82.4921
79.1016	82.6149	79.1016	82.6101	79.1016	82.621	79.1016	82.6065	79.1016	82.6283	79.1016	82.6035	79.1016	82.6367	79.1016	82.6005	79.1016	82.6454	79.1016	82.5969	79.1016	82.6538	79.1016	82.5919	79.1016	82.6606	79.1016	82.5847	79.1016	82.6648	79.1016	82.5746	79.1016	82.6652	79.1016	82.5614	79.1016	82.6607	79.1016	82.5452	79.1016	82.6507	79.1016	82.5264	79.1016	82.6348	79.1016	82.5064	79.1016	82.6134	79.1016	82.4868	79.1016	82.5876	79.1016	82.4696	79.1016	82.559	79.1016	82.4569	79.1016	82.5296	79.1016	82.4506	79.1016	82.502	79.1016	82.4519	79.1016	82.4785	79.1016	82.4614
82.0312	82.9611	82.0312	82.951	82.0312	82.9724	82.0312	82.9419	82.0312	82.9843	82.0312	82.9338	82.0312	82.9963	82.0312	82.9262	82.0312	83.0074	82.0312	82.9185	82.0312	83.0165	82.0312	82.9103	82.0312	83.0224	82.0312	82.9009	82.0312	83.0238	82.0312	82.8899	82.0312	83.0197	82.0312	82.877	82.0312	83.0096	82.0312	82.8622	82.0312	82.9934	82.0312	82.8462	82.0312	82.9714	82.0312	82.8296	82.0312	82.9448	82.0312	82.8137	82.0312	82.9151	82.0312	82.8	82.0312	82.8844	82.0312	82.7899	82.0312	82.8549	82.0312	82.7848	82.0312	82.8289	82.0312	82.7858	82.0312	82.808	82.0312	82.7934
84.9609	83.0163	84.9609	83.0031	84.9609	83.0344	84.9609	82.995	84.9609	83.057	84.9609	82.9918	84.9609	83.0828	84.9609	82.9928	84.9609	83.1105	84.9609	82.9973	84.9609	83.1384	84.9609	83.0043	84.9609	83.1644	84.9609	83.013	84.9609	83.187	84.9609	83.0226	84.9609	83.2045	84.9609	83.0324	84.9609	83.216	84.9609	83.0418	84.9609	83.2207	84.9609	83.0506	84.9609	83.2189	84.9609	83.0587	84.9609	83.2112	84.9609	83.0664	84.9609	83.1989	84.9609	83.0741	84.9609	83.1835	84.9609	83.0827	84.9609	83.1666	84.9609	83.0926	84.9609	83.1494	84.9609	83.1043	84.9609	83.133	84.9609	83.1178
87.8906	83.007	87.8906	83.0219	87.8906	82.9948	87.8906	83.0392	87.8906	82.9855	87.8906	83.0577	87.8906	82.9787	87.8906	83.0763	87.8906	82.9739	87.8906	83.0932	87.8906	82.9703	87.8906	83.1067	87.8906	82.9672	87.8906	83.1154	87.8906	82.964	87.8906	83.1179	87.8906	82.9599	87.8906	83.1137	87.8906	82.9548	87.8906	83.1025	87.8906	82.9486	87.8906	83.085	87.8906	82.9416	87.8906	83.0624	87.8906	82.9342	87.8906	83.0365	87.8906	82.9272	87.8906	83.0095	87.8906	82.9215	87.8906	82.9836	87.8906	82.918	87.8906	82.9609	87.8906	82.9176	87.8906	82.9426	87.8906	82.9211	87.8906	82.9293
90.8203	83.7118	90.8203	83.7282	90.8203	83.6905	90.8203	83.739	90.8203	83.6644	90.8203	83.7435	90.8203	83.6338	90.8203	83.7407	90.8203	83.5987	90.8203	83.7295	90.8203	83.5588	90.8203	83.7093	90.8203	83.5143	90.8203	83.6793	90.8203	83.4652	90.8203	83.6395	90.8203	83.4121	90.8203	83.5904	90.8203	83.356	90.8203	83.5331	90.8203	83.2983	90.8203	83.4693	90.8203	83.2411	90.8203	83.4012	90.8203	83.1872	90.8203	83.3318	90.8203	83.1392	90.8203	83.2641	90.8203	83.1001	90.8203	83.2016	90.8203	83.0723	90.8203	83.1474	90.8203	83.0581	90.8203	83.1042	90.8203	83.0585	90.8203	83.0741
95.2148	83.311	95.2148	83.3072	95.2148	83.3188	95.2148	83.3079	95.2148	83.33	95.2148	83.3132	95.2148	83.3442	95.2148	83.323	95.2148	83.3606	95.2148	83.337	95.2148	83.3789	95.2148	83.3544	95.2148	83.3984	95.2148	83.3744	95.2148	83.4186	95.2148	83.3961	95.2148	83.4389	95.2148	83.4185	95.2148	83.4586	95.2148	83.4405	95.2148	83.477	95.2148	83.4612	95.2148	83.4935	95.2148	83.4796	95.2148	83.5075	95.2148	83.4953	95.2148	83.5184	95.2148	83.5079	95.2148	83.5263	95.2148	83.5176	95.2148	83.5312	95.2148	83.5246	95.2148	83.5336	95.2148	83.5294	95.2148	83.5339	95.2148	83.5324
98.1445	83.515	98.1445	83.5227	98.1445	83.5046	98.1445	83.5277	98.1445	83.4921	98.1445	83.5298	98.1445	83.4782	98.1445	83.5293	98.1445	83.4638	98.1445	83.5261	98.1445	83.4496	98.1445	83.5203	98.1445	83.4366	98.1445	83.5119	98.1445	83.4253	98.1445	83.5006	98.1445	83.4157	98.1445	83.4866	98.1445	83.4079	98.1445	83.47	98.1445	83.4011	98.1445	83.4513	98.1445	83.3946	98.1445	83.4315	98.1445	83.3878	98.1445	83.4116	98.1445	83.3802	98.1445	83.3929	98.1445	83.372	98.1445	83.3767	98.1445	83.3639	98.1445	83.3641	98.1445	83.357	98.1445	83.3557	98.1445	83.3527	98.1445	83.352
101.074	83.5765	101.074	83.5874	101.074	83.5651	101.074	83.5965	101.074	83.554	101.074	83.603	101.074	83.5441	101.074	83.6058	101.074	83.5356	101.074	83.6045	101.074	83.5286	101.074	83.5986	101.074	83.5227	101.074	83.5882	101.074	83.5175	101.074	83.5733	101.074	83.5126	101.074	83.5548	101.074	83.5078	101.074	83.5337	101.074	83.5031	101.074	83.512	101.074	83.4987	101.074	83.4915	101.074	83.4945	101.074	83.4744	101.074	83.4904	101.074	83.4622	101.074	83.486	101.074	83.4554	101.074	83.4811	101.074	83.4539	101.074	83.4752	101.074	83.4565	101.074	83.4686	101.074	83.4619
105.469	84.0906	105.469	84.0945	105.469	84.0807	105.469	84.0926	105.469	84.065	105.469	84.0852	105.469	84.0439	105.469	84.0723	105.469	84.0178	105.469	84.054	105.469	83.9872	105.469	84.0297	105.469	83.9524	105.469	83.9984	105.469	83.9132	105.469	83.9587	105.469	83.869	105.469	83.9092	105.469	83.8192	105.469	83.8491	105.469	83.7632	105.469	83.7788	105.469	83.7013	105.469	83.7003	105.469	83.6348	105.469	83.6176	105.469	83.5664	105.469	83.5364	105.469	83.4996	105.469	83.4631	105.469	83.4394	105.469	83.4045	105.469	83.3912	105.469	83.3661	105.469	83.3603	105.469	83.3512
108.398	84.1215	108.398	84.1109	108.398	84.121	108.398	84.0913	108.398	84.1078	108.398	84.0654	108.398	84.0813	108.398	84.0359	108.398	84.0418	108.398	84.0052	108.398	83.9909	108.398	83.9752	108.398	83.9308	108.398	83.9465	108.398	83.8646	108.398	83.9186	108.398	83.7955	108.398	83.89	108.398	83.7265	108.398	83.858	108.398	83.66	108.398	83.82	108.398	83.5977	108.398	83.7741	108.398	83.5413	108.398	83.7198	108.398	83.4923	108.398	83.6588	108.398	83.4527	108.398	83.5949	108.398	83.4252	108.398	83.5334	108.398	83.4125	108.398	83.48	108.398	83.4172	108.398	83.4401
112.793	84.2309	112.793	84.2012	112.793	84.247	112.793	84.1585	112.793	84.2494	112.793	84.1039	112.793	84.2383	112.793	84.0393	112.793	84.2145	112.793	83.9669	112.793	84.1789	112.793	83.8895	112.793	84.1328	112.793	83.8104	112.793	84.0775	112.793	83.7328	112.793	84.0146	112.793	83.6598	112.793	83.9459	112.793	83.5939	112.793	83.8732	112.793	83.5368	112.793	83.7985	112.793	83.4893	112.793	83.7241	112.793	83.4515	112.793	83.6523	112.793	83.4232	112.793	83.5855	112.793	83.4044	112.793	83.5261	112.793	83.3956	112.793	83.4762	112.793	83.3976	112.793	83.4377	112.793	83.4114
117.188	84.3916	117.188	84.3818	117.188	84.3878	117.188	84.3591	117.188	84.3697	117.188	84.324	117.188	84.3363	117.188	84.277	117.188	84.2871	117.188	84.2184	117.188	84.2216	117.188	84.1486	117.188	84.14	117.188	84.0679	117.188	84.0432	117.188	83.9769	117.188	83.9333	117.188	83.8768	117.188	83.8132	117.188	83.769	117.188	83.687	117.188	83.6558	117.188	83.5599	117.188	83.5407	117.188	83.4373	117.188	83.4276	117.188	83.325	117.188	83.3217	117.188	83.2281	117.188	83.2281	117.188	83.151	117.188	83.1522	117.188	83.0976	117.188	83.0986	117.188	83.0703	117.188	83.0707
120.117	84.3198	120.117	84.3176	120.117	84.3117	120.117	84.3047	120.117	84.2933	120.117	84.2806	120.117	84.2645	120.117	84.2449	120.117	84.2247	120.117	84.1971	120.117	84.1731	120.117	84.137	120.117	84.1089	120.117	84.0646	120.117	84.0312	120.117	83.9804	120.117	83.9398	120.117	83.8853	120.117	83.8354	120.117	83.781	120.117	83.7202	120.117	83.6698	120.117	83.5979	120.117	83.555	120.117	83.4742	120.117	83.4409	120.117	83.3558	120.117	83.3325	120.117	83.2501	120.117	83.2358	120.117	83.1639	120.117	83.1564	120.117	83.1031	120.117	83.0999	120.117	83.0715	120.117	83.0706
124.512	84.0153	124.512	84.0206	124.512	84.0039	124.512	84.02	124.512	83.9864	124.512	84.0142	124.512	83.9635	124.512	84.0039	124.512	83.9358	124.512	83.9901	124.512	83.9044	124.512	83.9737	124.512	83.8701	124.512	83.9551	124.512	83.8337	124.512	83.9347	124.512	83.7957	124.512	83.9119	124.512	83.7564	124.512	83.8861	124.512	83.7165	124.512	83.8564	124.512	83.6771	124.512	83.822	124.512	83.6398	124.512	83.7831	124.512	83.6069	124.512	83.7404	124.512	83.5808	124.512	83.6962	124.512	83.5641	124.512	83.6533	124.512	83.5587	124.512	83.6151	124.512	83.5658	124.512	83.5851
128.906	84.0972	128.906	84.0852	128.906	84.0997	128.906	84.0643	128.906	84.0926	128.906	84.0357	128.906	84.0761	128.906	84.0009	128.906	84.0507	128.906	83.9618	128.906	84.0173	128.906	83.9205	128.906	83.9772	128.906	83.8791	128.906	83.9318	128.906	83.8395	128.906	83.8828	128.906	83.8026	128.906	83.8319	128.906	83.7689	128.906	83.7809	128.906	83.7377	128.906	83.7316	128.906	83.7079	128.906	83.6857	128.906	83.6784	128.906	83.6448	128.906	83.6491	128.906	83.6104	128.906	83.6206	128.906	83.584	128.906	83.595	128.906	83.5666	128.906	83.5747	128.906	83.5593	128.906	83.5622
133.301	84.1232	133.301	84.1155	133.301	84.1188	133.301	84.096	133.301	84.1026	133.301	84.0653	133.301	84.0753	133.301	84.0245	133.301	84.038	133.301	83.9753	133.301	83.9921	133.301	83.9197	133.301	83.9391	133.301	83.8603	133.301	83.881	133.301	83.7999	133.301	83.8196	133.301	83.7414	133.301	83.7569	133.301	83.6871	133.301	83.695	133.301	83.6386	133.301	83.6361	133.301	83.5964	133.301	83.5823	133.301	83.56	133.301	83.5356	133.301	83.5286	133.301	83.4978	133.301	83.5014	133.301	83.4699	133.301	83.4784	133.301	83.4527	133.301	83.4604	133.301	83.446	133.301	83.4491
139.16	84.1051	139.16	84.0962	139.16	84.098	139.16	84.0722	139.16	84.075	139.16	84.0343	139.16	84.0367	139.16	83.9847	139.16	83.9847	139.16	83.9258	139.16	83.9208	139.16	83.8605	139.16	83.8474	139.16	83.7924	139.16	83.7676	139.16	83.7245	139.16	83.6843	139.16	83.6599	139.16	83.6012	139.16	83.6006	139.16	83.5216	139.16	83.5476	139.16	83.449	139.16	83.5006	139.16	83.3865	139.16	83.4585	139.16	83.3363	139.16	83.4196	139.16	83.3	139.16	83.3829	139.16	83.2782	139.16	83.3483	139.16	83.2704	139.16	83.3173	139.16	83.2757	139.16	83.2922
143.555	84.0325	143.555	84.0188	143.555	84.03	143.555	83.9899	143.555	84.0114	143.555	83.9471	143.555	83.9774	143.555	83.8925	143.555	83.9294	143.555	83.8287	143.555	83.8693	143.555	83.7583	143.555	83.7992	143.555	83.6846	143.555	83.7216	143.555	83.6107	143.555	83.6395	143.555	83.5399	143.555	83.5558	143.555	83.4752	143.555	83.4742	143.555	83.4188	143.555	83.3985	143.555	83.3717	143.555	83.3324	143.555	83.3334	143.555	83.2788	143.555	83.3024	143.555	83.2397	143.555	83.2763	143.555	83.2155	143.555	83.2536	143.555	83.2053	143.555	83.2335	143.555	83.2068	143.555	83.2172
147.949	83.9778	147.949	83.9664	147.949	83.9723	147.949	83.9381	147.949	83.9503	147.949	83.8939	147.949	83.9132	147.949	83.8357	147.949	83.8626	147.949	83.7661	147.949	83.8004	147.949	83.6885	147.949	83.7287	147.949	83.6066	147.949	83.6497	147.949	83.5247	147.949	83.5659	147.949	83.4472	147.949	83.4803	147.949	83.3778	147.949	83.3963	147.949	83.3194	147.949	83.3178	147.949	83.273	147.949	83.2488	147.949	83.2377	147.949	83.1929	147.949	83.2111	147.949	83.1526	147.949	83.1895	147.949	83.1286	147.949	83.1703	147.949	83.1198	147.949	83.1519	147.949	83.1234	147.949	83.1354
153.809	83.9052	153.809	83.8908	153.809	83.9023	153.809	83.8594	153.809	83.8827	153.809	83.8118	153.809	83.8477	153.809	83.7499	153.809	83.7989	153.809	83.6763	153.809	83.7381	153.809	83.5943	153.809	83.6673	153.809	83.5076	153.809	83.5882	153.809	83.4206	153.809	83.503	153.809	83.3374	153.809	83.4142	153.809	83.2621	153.809	83.3247	153.809	83.1977	153.809	83.2381	153.809	83.1457	153.809	83.1585	153.809	83.1054	153.809	83.0897	153.809	83.0741	153.809	83.0353	153.809	83.0483	153.809	82.998	153.809	83.025	153.809	82.9786	153.809	83.0035	153.809	82.9758	153.809	82.9857
159.668	83.7031	159.668	83.6846	159.668	83.7049	159.668	83.6497	159.668	83.6906	159.668	83.6003	159.668	83.6625	159.668	83.5391	159.668	83.6241	159.668	83.4692	159.668	83.5796	159.668	83.3946	159.668	83.5329	159.668	83.3196	159.668	83.4868	159.668	83.2493	159.668	83.4426	159.668	83.1885	159.668	83.4007	159.668	83.142	159.668	83.3609	159.668	83.1131	159.668	83.3235	159.668	83.1027	159.668	83.2895	159.668	83.1088	159.668	83.2605	159.668	83.1264	159.668	83.2378	159.668	83.149	159.668	83.2219	159.668	83.1705	159.668	83.2118	159.668	83.187	159.668	83.2049	159.668	83.1978
165.527	83.8682	165.527	83.8405	165.527	83.8698	165.527	83.7884	165.527	83.8463	165.527	83.7153	165.527	83.8007	165.527	83.6264	165.527	83.7378	165.527	83.528	165.527	83.6643	165.527	83.427	165.527	83.5869	165.527	83.3303	165.527	83.5123	165.527	83.2445	165.527	83.4454	165.527	83.1757	165.527	83.3896	165.527	83.1285	165.527	83.346	165.527	83.1062	165.527	83.3144	165.527	83.1088	165.527	83.2942	165.527	83.1329	165.527	83.284	165.527	83.1712	165.527	83.2825	165.527	83.2144	165.527	83.2871	165.527	83.2533	165.527	83.2942	165.527	83.2813	165.527	83.2989	165.527	83.296
171.387	83.9643	171.387	83.9487	171.387	83.95	171.387	83.9043	171.387	83.9058	171.387	83.833	171.387	83.8332	171.387	83.7378	171.387	83.7357	171.387	83.6229	171.387	83.6187	171.387	83.4935	171.387	83.4897	171.387	83.3559	171.387	83.3575	171.387	83.2172	171.387	83.2309	171.387	83.0849	171.387	83.1173	171.387	82.9661	171.387	83.0213	171.387	82.867	171.387	82.9444	171.387	82.7915	171.387	82.8853	171.387	82.7404	171.387	82.8406	171.387	82.7113	171.387	82.8062	171.387	82.6993	171.387	82.7786	171.387	82.6992	171.387	82.7555	171.387	82.7067	171.387	82.7357	171.387	82.7193
177.246	83.7226	177.246	83.7134	177.246	83.7026	177.246	83.6745	177.246	83.6549	177.246	83.6067	177.246	83.5825	177.246	83.5121	177.246	83.4893	177.246	83.394	177.246	83.3801	177.246	83.2576	177.246	83.2606	177.246	83.1095	177.246	83.1366	177.246	82.9585	177.246	83.014	177.246	82.8149	177.246	82.8984	177.246	82.6896	177.246	82.7949	177.246	82.5922	177.246	82.7077	177.246	82.5287	177.246	82.6401	177.246	82.4995	177.246	82.5935	177.246	82.4982	177.246	82.567	177.246	82.5141	177.246	82.5572	177.246	82.5352	177.246	82.5577	177.246	82.5524	177.246	82.5612	177.246	82.5609
183.105	83.5029	183.105	83.5037	183.105	83.4745	183.105	83.4774	183.105	83.4196	183.105	83.4253	183.105	83.3406	183.105	83.3494	183.105	83.242	183.105	83.2525	183.105	83.1299	183.105	83.1382	183.105	83.012	183.105	83.0112	183.105	82.8961	183.105	82.8783	183.105	82.79	183.105	82.7481	183.105	82.6996	183.105	82.6313	183.105	82.6285	183.105	82.5384	183.105	82.5777	183.105	82.4779	183.105	82.546	183.105	82.4523	183.105	82.5308	183.105	82.4569	183.105	82.5287	183.105	82.4811	183.105	82.5354	183.105	82.5115	183.105	82.5453	183.105	82.5369	183.105	82.5524	183.105	82.5508
188.965	83.593	188.965	83.585	188.965	83.5672	188.965	83.5455	188.965	83.5071	188.965	83.4781	188.965	83.414	188.965	83.387	188.965	83.2915	188.965	83.2764	188.965	83.1458	188.965	83.15	188.965	82.9852	188.965	83.0105	188.965	82.8203	188.965	82.8608	188.965	82.662	188.965	82.7053	188.965	82.5208	188.965	82.552	188.965	82.4048	188.965	82.4125	188.965	82.3188	188.965	82.3002	188.965	82.2638	188.965	82.2253	188.965	82.2369	188.965	82.1906	188.965	82.2316	188.965	82.1894	188.965	82.2393	188.965	82.2082	188.965	82.2502	188.965	82.2322	188.965	82.2556	188.965	82.2498
196.289	83.5676	196.289	83.5495	196.289	83.5475	196.289	83.4961	196.289	83.4886	196.289	83.4124	196.289	83.3926	196.289	83.3052	196.289	83.2635	196.289	83.1825	196.289	83.1074	196.289	83.052	196.289	82.9337	196.289	82.9195	196.289	82.7538	196.289	82.788	196.289	82.5806	196.289	82.6583	196.289	82.4259	196.289	82.5311	196.289	82.2979	196.289	82.409	196.289	82.1997	196.289	82.2981	196.289	82.1294	196.289	82.2058	196.289	82.0819	196.289	82.1371	196.289	82.0518	196.289	82.0914	196.289	82.0349	196.289	82.0634	196.289	82.0281	196.289	82.0464	196.289	82.029	196.289	82.0355
203.613	83.4338	203.613	83.3933	203.613	83.4347	203.613	83.3162	203.613	83.3952	203.613	83.2074	203.613	83.3157	203.613	83.0748	203.613	83.1976	203.613	82.9277	203.613	83.0442	203.613	82.7762	203.613	82.8611	203.613	82.6279	203.613	82.6575	203.613	82.4866	203.613	82.447	203.613	82.3518	203.613	82.2476	203.613	82.2219	203.613	82.0783	203.613	82.0979	203.613	81.9542	203.613	81.9869	203.613	81.8813	203.613	81.9002	203.613	81.8543	203.613	81.8481	203.613	81.8589	203.613	81.8324	203.613	81.8779	203.613	81.8448	203.613	81.8957	203.613	81.8698	203.613	81.9018	203.613	81.8922
210.938	83.3348	210.938	83.2904	210.938	83.3383	210.938	83.2055	210.938	83.302	210.938	83.0825	210.938	83.2281	210.938	82.927	210.938	83.1199	210.938	82.7489	210.938	82.9823	210.938	82.5624	210.938	82.8216	210.938	82.383	210.938	82.6455	210.938	82.2239	210.938	82.4628	210.938	82.092	210.938	82.2827	210.938	81.9861	210.938	82.1152	210.938	81.8996	210.938	81.9699	210.938	81.8257	210.938	81.854	210.938	81.7614	210.938	81.7706	210.938	81.7087	210.938	81.7178	210.938	81.6718	210.938	81.6885	210.938	81.653	210.938	81.6732	210.938	81.6495	210.938	81.6635	210.938	81.655
218.262	83.1936	218.262	83.1621	218.262	83.187	218.262	83.0919	218.262	83.1433	218.262	82.9839	218.262	83.0643	218.262	82.8412	218.262	82.952	218.262	82.6709	218.262	82.8094	218.262	82.4851	218.262	82.6412	218.262	82.3008	218.262	82.4554	218.262	82.1361	218.262	82.2643	218.262	82.0056	218.262	82.0839	218.262	81.9155	218.262	81.9318	218.262	81.8621	218.262	81.822	218.262	81.8361	218.262	81.7609	218.262	81.8271	218.262	81.7444	218.262	81.8279	218.262	81.7599	218.262	81.8344	218.262	81.791	218.262	81.8439	218.262	81.8228	218.262	81.8523	218.262	81.8452	218.262	81.8544
225.586	83.1527	225.586	83.1541	225.586	83.1073	225.586	83.1108	225.586	83.0199	225.586	83.0238	225.586	82.8944	225.586	82.8962	225.586	82.7362	225.586	82.7338	225.586	82.552	225.586	82.546	225.586	82.3499	225.586	82.3463	225.586	82.14	225.586	82.1518	225.586	81.9348	225.586	81.9811	225.586	81.7498	225.586	81.8506	225.586	81.6023	225.586	81.7704	225.586	81.5073	225.586	81.7408	225.586	81.4723	225.586	81.7521	225.586	81.4937	225.586	81.7876	225.586	81.557	225.586	81.8287	225.586	81.6419	225.586	81.8591	225.586	81.7283	225.586	81.8675	225.586	81.8003	225.586	81.8481
232.91	83.0677	232.91	83.0454	232.91	83.0443	232.91	82.979	232.91	82.975	232.91	82.8715	232.91	82.8612	232.91	82.7273	232.91	82.7066	232.91	82.5529	232.91	82.5159	232.91	82.3578	232.91	82.295	232.91	82.1545	232.91	82.0509	232.91	81.9575	232.91	81.7935	232.91	81.7815	232.91	81.5374	232.91	81.6388	232.91	81.3039	232.91	81.537	232.91	81.1183	232.91	81.478	232.91	81.0036	232.91	81.4575	232.91	80.9713	232.91	81.4649	232.91	81.0151	232.91	81.4843	232.91	81.1127	232.91	81.4968	232.91	81.2338	232.91	81.4847	232.91	81.3488	232.91	81.4359
241.699	82.824	241.699	82.791	241.699	82.8101	241.699	82.7146	241.699	82.7481	241.699	82.5988	241.699	82.6397	241.699	82.4484	241.699	82.4896	241.699	82.2687	241.699	82.3061	241.699	82.066	241.699	82.0992	241.699	81.8488	241.699	81.8795	241.699	81.6286	241.699	81.6568	241.699	81.4207	241.699	81.4395	241.699	81.2426	241.699	81.2362	241.699	81.1111	241.699	81.0568	241.699	81.036	241.699	80.9137	241.699	81.0149	241.699	80.82	241.699	81.0319	241.699	80.7849	241.699	81.063	241.699	80.8074	241.699	81.0835	241.699	80.8727	241.699	81.0748	241.699	80.956	241.699	81.03
250.488	82.7318	250.488	82.6855	250.488	82.7179	250.488	82.5828	250.488	82.6443	250.488	82.4316	250.488	82.5165	250.488	82.2429	250.488	82.3436	250.488	82.0294	250.488	82.1373	250.488	81.8043	250.488	81.9093	250.488	81.5798	250.488	81.6692	250.488	81.3653	250.488	81.4254	250.488	81.1671	250.488	81.1872	250.488	80.9888	250.488	80.9675	250.488	80.8333	250.488	80.7818	250.488	80.7054	250.488	80.6434	250.488	80.6119	250.488	80.5572	250.488	80.5578	250.488	80.5186	250.488	80.541	250.488	80.5156	250.488	80.5491	250.488	80.5329	250.488	80.5629	250.488	80.5545	250.488	80.5665
259.277	82.8668	259.277	82.832	259.277	82.8302	259.277	82.7261	259.277	82.7258	259.277	82.5538	259.277	82.5619	259.277	82.3256	259.277	82.3525	259.277	82.0582	259.277	82.1172	259.277	81.7727	259.277	81.878	259.277	81.4902	259.277	81.6528	259.277	81.2294	259.277	81.4496	259.277	81.0058	259.277	81.2666	259.277	80.8344	259.277	81.0981	259.277	80.7289	259.277	80.9447	259.277	80.6936	259.277	80.8165	259.277	80.7158	259.277	80.7284	259.277	80.7678	259.277	80.6897	259.277	80.819	259.277	80.6965	259.277	80.8484	259.277	80.7336	259.277	80.8493	259.277	80.7818	259.277	80.8244
268.066	82.7705	268.066	82.7151	268.066	82.7579	268.066	82.5949	268.066	82.6732	268.066	82.4125	268.066	82.5137	268.066	82.1726	268.066	82.2826	268.066	81.8859	268.066	81.9939	268.066	81.5707	268.066	81.6734	268.066	81.2513	268.066	81.3553	268.066	80.9522	268.066	81.0719	268.066	80.6906	268.066	80.8437	268.066	80.475	268.066	80.677	268.066	80.3107	268.066	80.568	268.066	80.2054	268.066	80.5079	268.066	80.1669	268.066	80.486	268.066	80.1936	268.066	80.4906	268.066	80.2686	268.066	80.5086	268.066	80.3632	268.066	80.5263	268.066	80.4486	268.066	80.5296	268.066	80.5058
276.855	82.9845	276.855	82.9219	276.855	82.9613	276.855	82.7686	276.855	82.862	276.855	82.5294	276.855	82.6965	276.855	82.221	276.855	82.471	276.855	81.8715	276.855	82.1884	276.855	81.5158	276.855	81.8517	276.855	81.1864	276.855	81.469	276.855	80.9023	276.855	81.0571	276.855	80.6623	276.855	80.6419	276.855	80.4501	276.855	80.2569	276.855	80.2512	276.855	79.9391	276.855	80.0681	276.855	79.7215	276.855	79.9217	276.855	79.6188	276.855	79.8349	276.855	79.6184	276.855	79.8113	276.855	79.683	276.855	79.8302	276.855	79.7671	276.855	79.858	276.855	79.8342	276.855	79.8647
287.109	82.5488	287.109	82.5029	287.109	82.5519	287.109	82.4134	287.109	82.5058	287.109	82.27	287.109	82.4022	287.109	82.0576	287.109	82.2377	287.109	81.7665	287.109	82.0179	287.109	81.4053	287.109	81.7585	287.109	81.0109	287.109	81.482	287.109	80.6478	287.109	81.2094	287.109	80.3869	287.109	80.9535	287.109	80.2675	287.109	80.7213	287.109	80.271	287.109	80.5223	287.109	80.335	287.109	80.3719	287.109	80.3944	287.109	80.2812	287.109	80.4122	287.109	80.2438	287.109	80.3856	287.109	80.2369	287.109	80.335	287.109	80.2386	287.109	80.286	287.109	80.2422	287.109	80.2549
297.363	82.8086	297.363	82.8481	297.363	82.7104	297.363	82.8274	297.363	82.5528	297.363	82.7416	297.363	82.3319	297.363	82.5826	297.363	82.0422	297.363	82.3418	297.363	81.682	297.363	82.0146	297.363	81.2646	297.363	81.609	297.363	80.8272	297.363	81.1515	297.363	80.4295	297.363	80.6915	297.363	80.1304	297.363	80.2975	297.363	79.9569	297.363	80.0398	297.363	79.8938	297.363	79.9605	297.363	79.908	297.363	80.0461	297.363	79.977	297.363	80.2305	297.363	80.0911	297.363	80.4285	297.363	80.2375	297.363	80.5738	297.363	80.392	297.363	80.6357	297.363	80.5261	297.363	80.6144
307.617	82.6465	307.617	82.5774	307.617	82.6256	307.617	82.4298	307.617	82.515	307.617	82.2202	307.617	82.3279	307.617	81.9639	307.617	82.0856	307.617	81.6718	307.617	81.8087	307.617	81.3543	307.617	81.5086	307.617	81.0315	307.617	81.1871	307.617	80.74	307.617	80.8453	307.617	80.5224	307.617	80.4955	307.617	80.3958	307.617	80.1652	307.617	80.3291	307.617	79.8876	307.617	80.2628	307.617	79.6886	307.617	80.1557	307.617	79.581	307.617	80.0145	307.617	79.5638	307.617	79.8827	307.617	79.6152	307.617	79.8019	307.617	79.6928	307.617	79.7767	307.617	79.7522	307.617	79.7741
319.336	82.6129	319.336	82.5392	319.336	82.587	319.336	82.3745	319.336	82.4586	319.336	82.1325	319.336	82.2306	319.336	81.8288	319.336	81.9123	319.336	81.4741	319.336	81.5219	319.336	81.0676	319.336	81.088	319.336	80.6002	319.336	80.6468	319.336	80.0759	319.336	80.2344	319.336	79.547	319.336	79.8794	319.336	79.1319	319.336	79.6046	319.336	78.9621	319.336	79.4298	319.336	79.0688	319.336	79.3636	319.336	79.3444	319.336	79.3909	319.336	79.6374	319.336	79.4763	319.336	79.8487	319.336	79.5847	319.336	79.9491	319.336	79.6962	319.336	79.9541	319.336	79.8029	319.336	79.8953
329.59	82.3771	329.59	82.3234	329.59	82.3817	329.59	82.2221	329.59	82.326	329.59	82.068	329.59	82.1935	329.59	81.8562	329.59	81.968	329.59	81.5869	329.59	81.6405	329.59	81.2611	329.59	81.2179	329.59	80.8722	329.59	80.7336	329.59	80.4079	329.59	80.2508	329.59	79.8726	329.59	79.841	329.59	79.3211	329.59	79.5406	329.59	78.875	329.59	79.3312	329.59	78.677	329.59	79.1744	329.59	78.7771	329.59	79.0601	329.59	79.0724	329.59	79.0165	329.59	79.391	329.59	79.0738	329.59	79.6047	329.59	79.2241	329.59	79.6652	329.59	79.4177	329.59	79.5865
341.309	82.3954	341.309	82.3702	341.309	82.3083	341.309	82.2391	341.309	82.1164	341.309	82.0195	341.309	81.8392	341.309	81.7372	341.309	81.4987	341.309	81.4235	341.309	81.1066	341.309	81.1086	341.309	80.6569	341.309	80.8052	341.309	80.1356	341.309	80.4955	341.309	79.5494	341.309	80.1392	341.309	78.9636	341.309	79.7043	341.309	78.5125	341.309	79.2038	341.309	78.3262	341.309	78.7224	341.309	78.4081	341.309	78.4056	341.309	78.6311	341.309	78.3707	341.309	78.8643	341.309	78.5903	341.309	79.0519	341.309	78.9056	341.309	79.1909	341.309	79.1595	341.309	79.2774	341.309	79.2808
353.027	82.0329	353.027	81.9731	353.027	82.0271	353.027	81.8499	353.027	81.9466	353.027	81.6583	353.027	81.7803	353.027	81.3947	353.027	81.5225	353.027	81.0685	353.027	81.1743	353.027	80.7055	353.027	80.7408	353.027	80.3353	353.027	80.2282	353.027	79.9693	353.027	79.6446	353.027	79.6035	353.027	79.0043	353.027	79.25	353.027	78.3426	353.027	78.9521	353.027	77.7396	353.027	78.7426	353.027	77.3143	353.027	78.6008	353.027	77.1543	353.027	78.4848	353.027	77.2471	353.027	78.3931	353.027	77.5049	353.027	78.3516	353.027	77.824	353.027	78.341	353.027	78.1068	353.027	78.2815
366.211	82.1025	366.211	81.939	366.211	82.1733	366.211	81.6894	366.211	82.1542	366.211	81.3665	366.211	82.0532	366.211	80.9801	366.211	81.8754	366.211	80.5321	366.211	81.6162	366.211	80.0273	366.211	81.261	366.211	79.501	366.211	80.7929	366.211	79.028	366.211	80.207	366.211	78.6809	366.211	79.5241	366.211	78.4694	366.211	78.8001	366.211	78.3451	366.211	78.1253	366.211	78.2626	366.211	77.6078	366.211	78.2042	366.211	77.3278	366.211	78.159	366.211	77.2854	366.211	78.1105	366.211	77.4024	366.211	78.05	366.211	77.5802	366.211	77.9766	366.211	77.7498	366.211	77.8815
379.395	82.0212	379.395	81.9701	379.395	82.023	379.395	81.8643	379.395	81.971	379.395	81.6899	379.395	81.8597	379.395	81.435	379.395	81.6923	379.395	81.1007	379.395	81.481	379.395	80.703	379.395	81.2333	379.395	80.2644	379.395	80.9396	379.395	79.8029	379.395	80.5833	379.395	79.3273	379.395	80.1682	379.395	78.8422	379.395	79.7339	379.395	78.3735	379.395	79.3362	379.395	78.0042	379.395	79.0083	379.395	77.8541	379.395	78.7474	379.395	77.9588	379.395	78.5437	379.395	78.1994	379.395	78.4082	379.395	78.4067	379.395	78.3593	379.395	78.4894	379.395	78.3915	379.395	78.4601
392.578	81.8301	392.578	81.7998	392.578	81.7838	392.578	81.6928	392.578	81.656	392.578	81.5045	392.578	81.4405	392.578	81.2302	392.578	81.1402	392.578	80.8737	392.578	80.7757	392.578	80.4582	392.578	80.3844	392.578	80.0259	392.578	80.0008	392.578	79.6222	392.578	79.6315	392.578	79.2759	392.578	79.2546	392.578	78.9934	392.578	78.8589	392.578	78.7609	392.578	78.49	392.578	78.5566	392.578	78.2458	392.578	78.3816	392.578	78.192	392.578	78.2844	392.578	78.2903	392.578	78.321	392.578	78.4442	392.578	78.4704	392.578	78.5847	392.578	78.6295	392.578	78.6815	392.578	78.7061
405.762	81.7162	405.762	81.5746	405.762	81.7363	405.762	81.3241	405.762	81.6419	405.762	80.9992	405.762	81.4503	405.762	80.6477	405.762	81.1805	405.762	80.3053	405.762	80.8535	405.762	79.9744	405.762	80.4929	405.762	79.6321	405.762	80.116	405.762	79.2685	405.762	79.7228	405.762	78.9137	405.762	79.3006	405.762	78.6215	405.762	78.8481	405.762	78.424	405.762	78.3967	405.762	78.3055	405.762	78.0138	405.762	78.2196	405.762	77.7751	405.762	78.1278	405.762	77.7106	405.762	78.0286	405.762	77.7712	405.762	77.9527	405.762	77.8643	405.762	77.9246	405.762	77.9208	405.762	77.9291
420.41	81.9433	420.41	81.7578	420.41	81.9742	420.41	81.4298	420.41	81.85	420.41	80.9744	420.41	81.5936	420.41	80.4212	420.41	81.2487	420.41	79.8367	420.41	80.8595	420.41	79.3211	420.41	80.4536	420.41	78.9472	420.41	80.0459	420.41	78.6984	420.41	79.6486	420.41	78.5054	420.41	79.2658	420.41	78.3381	420.41	78.8807	420.41	78.2294	420.41	78.468	420.41	78.2249	420.41	78.0348	420.41	78.3267	420.41	77.6533	420.41	78.4786	420.41	77.4339	420.41	78.5921	420.41	77.4374	420.41	78.5916	420.41	77.6238	420.41	78.4517	420.41	77.9047	420.41	78.2026
435.059	82.0724	435.059	82.0097	435.059	82.0013	435.059	81.8022	435.059	81.7944	435.059	81.4247	435.059	81.4473	435.059	80.8402	435.059	80.9783	435.059	80.0178	435.059	80.4509	435.059	78.9871	435.059	79.9606	435.059	77.9105	435.059	79.58	435.059	77.0792	435.059	79.3245	435.059	76.7128	435.059	79.1839	435.059	76.765	435.059	79.1554	435.059	77.044	435.059	79.2158	435.059	77.4094	435.059	79.294	435.059	77.8041	435.059	79.3117	435.059	78.2072	435.059	79.253	435.059	78.5919	435.059	79.1762	435.059	78.9101	435.059	79.1492	435.059	79.1134	435.059	79.1748	435.059	79.1884
451.172	83.2538	451.172	83.1415	451.172	83.1795	451.172	82.8473	451.172	82.9199	451.172	82.3875	451.172	82.4731	451.172	81.7844	451.172	81.8332	451.172	81.054	451.172	81.0049	451.172	80.1986	451.172	80.0251	451.172	79.2197	451.172	78.9768	451.172	78.1598	451.172	77.9897	451.172	77.1631	451.172	77.2394	451.172	76.4738	451.172	76.9243	451.172	76.2781	451.172	77.1262	451.172	76.5542	451.172	77.6693	451.172	77.1522	451.172	78.2607	451.172	77.9109	451.172	78.7244	451.172	78.6652	451.172	79.0538	451.172	79.2598	451.172	79.3184	451.172	79.5984	451.172	79.5445	451.172	79.671
465.82	83.2278	465.82	83.1663	465.82	83.1617	465.82	82.9503	465.82	82.991	465.82	82.5743	465.82	82.7084	465.82	82.0565	465.82	82.2712	465.82	81.4163	465.82	81.6248	465.82	80.6489	465.82	80.7452	465.82	79.7347	465.82	79.6756	465.82	78.7017	465.82	78.5303	465.82	77.6988	465.82	77.4483	465.82	76.9691	465.82	76.5638	465.82	76.6472	465.82	76.077	465.82	76.6314	465.82	76.2039	465.82	76.758	465.82	76.8435	465.82	76.9858	465.82	77.6067	465.82	77.3623	465.82	78.2167	465.82	77.871	465.82	78.6046	465.82	78.3704	465.82	78.7714	465.82	78.6964
483.398	83.1291	483.398	83.0761	483.398	83.0692	483.398	82.9145	483.398	82.8912	483.398	82.6412	483.398	82.5952	483.398	82.2467	483.398	82.1886	483.398	81.7218	483.398	81.6828	483.398	81.0521	483.398	81.0829	483.398	80.2019	483.398	80.375	483.398	79.1247	483.398	79.5325	483.398	77.8477	483.398	78.5496	483.398	76.63	483.398	77.4946	483.398	75.9596	483.398	76.5824	483.398	76.0169	483.398	76.1698	483.398	76.4259	483.398	76.4231	483.398	76.8499	483.398	77.0309	483.398	77.2317	483.398	77.5817	483.398	77.5892	483.398	77.9123	483.398	77.8769	483.398	78.0471	483.398	78.0337
499.512	82.9369	499.512	82.9027	499.512	82.8607	499.512	82.7536	499.512	82.6809	499.512	82.4636	499.512	82.4148	499.512	81.9964	499.512	82.057	499.512	81.3552	499.512	81.5543	499.512	80.6102	499.512	80.8376	499.512	79.842	499.512	79.8896	499.512	79.0344	499.512	78.7974	499.512	78.0742	499.512	77.7537	499.512	76.9445	499.512	76.954	499.512	76.0018	499.512	76.4256	499.512	75.8571	499.512	76.0822	499.512	76.4972	499.512	75.9991	499.512	77.2977	499.512	76.3738	499.512	77.8861	499.512	77.1259	499.512	78.2512	499.512	77.8932	499.512	78.4776	499.512	78.3923	499.512	78.5589
517.09	83.4142	517.09	83.227	517.09	83.4374	517.09	82.9151	517.09	83.2797	517.09	82.532	517.09	82.9551	517.09	82.1109	517.09	82.5057	517.09	81.6189	517.09	81.9695	517.09	80.9712	517.09	81.3499	517.09	80.1311	517.09	80.6307	517.09	79.188	517.09	79.7819	517.09	78.271	517.09	78.7289	517.09	77.3933	517.09	77.4288	517.09	76.5744	517.09	76.162	517.09	76.0951	517.09	75.6094	517.09	76.2604	517.09	75.9414	517.09	76.8831	517.09	76.5586	517.09	77.536	517.09	77.1045	517.09	77.9923	517.09	77.5766	517.09	78.2102	517.09	77.9679	517.09	78.1973
536.133	83.1777	536.133	83.1127	536.133	83.1174	536.133	82.9071	536.133	82.9327	536.133	82.5564	536.133	82.5961	536.133	82.0695	536.133	82.088	536.133	81.4535	536.133	81.4434	536.133	80.7013	536.133	80.7056	536.133	79.7901	536.133	79.8247	536.133	78.6982	536.133	78.7108	536.133	77.4312	536.133	77.4399	536.133	76.061	536.133	76.3004	536.133	74.899	536.133	75.5422	536.133	74.6377	536.133	75.3152	536.133	75.4444	536.133	75.7597	536.133	76.5256	536.133	76.6627	536.133	77.368	536.133	77.5524	536.133	77.9476	536.133	78.1628	536.133	78.3256	536.133	78.4644	536.133	78.5056
555.176	83.2887	555.176	83.2257	555.176	83.2848	555.176	83.0774	555.176	83.2059	555.176	82.8025	555.176	83.0278	555.176	82.3607	555.176	82.717	555.176	81.7378	555.176	82.2369	555.176	80.9469	555.176	81.5636	555.176	80.0028	555.176	80.6933	555.176	78.9036	555.176	79.6147	555.176	77.6733	555.176	78.2737	555.176	76.4042	555.176	76.6141	555.176	75.1853	555.176	74.7783	555.176	74.1743	555.176	73.4168	555.176	73.8829	555.176	73.2954	555.176	74.5847	555.176	74.1612	555.176	75.7131	555.176	75.3129	555.176	76.709	555.176	76.3798	555.176	77.3456	555.176	77.1642	555.176	77.5106
574.219	83.2702	574.219	83.2161	574.219	83.1489	574.219	83.0032	574.219	82.9069	574.219	82.6989	574.219	82.6312	574.219	82.3583	574.219	82.3593	574.219	81.9671	574.219	82.0373	574.219	81.4399	574.219	81.5814	574.219	80.6637	574.219	80.9466	574.219	79.5381	574.219	80.106	574.219	77.9923	574.219	79.0104	574.219	76.0705	574.219	77.6486	574.219	74.2527	574.219	76.1488	574.219	73.5589	574.219	74.7906	574.219	74.1704	574.219	73.9805	574.219	75.221	574.219	74.1287	574.219	76.1867	574.219	75.1344	574.219	76.9297	574.219	76.3383	574.219	77.4075	574.219	77.1995	574.219	77.5385
594.727	83.0737	594.727	82.9548	594.727	83.0565	594.727	82.7423	594.727	82.8969	594.727	82.4845	594.727	82.6251	594.727	82.1947	594.727	82.2803	594.727	81.8366	594.727	81.8725	594.727	81.3547	594.727	81.3715	594.727	80.7206	594.727	80.7665	594.727	79.9591	594.727	80.0922	594.727	79.0988	594.727	79.2786	594.727	78.0361	594.727	78.0717	594.727	76.6043	594.727	76.3193	594.727	75.1262	594.727	74.4917	594.727	74.7513	594.727	73.8085	594.727	75.6826	594.727	74.5272	594.727	76.8166	594.727	75.6961	594.727	77.6173	594.727	76.7664	594.727	78.0181	594.727	77.5642	594.727	77.9999
615.234	82.9792	615.234	82.9741	615.234	82.8816	615.234	82.8277	615.234	82.6884	615.234	82.4996	615.234	82.3831	615.234	81.9959	615.234	81.9654	615.234	81.3689	615.234	81.4841	615.234	80.6433	615.234	80.9611	615.234	79.7586	615.234	80.2565	615.234	78.5942	615.234	79.1663	615.234	77.0733	615.234	77.7086	615.234	75.3123	615.234	76.1665	615.234	73.7035	615.234	74.7358	615.234	72.7372	615.234	73.5554	615.234	72.6423	615.234	73.3638	615.234	73.4521	615.234	74.4439	615.234	74.8548	615.234	75.7258	615.234	76.1363	615.234	76.5545	615.234	76.8795	615.234	76.9646	615.234	77.0942
637.207	82.7338	637.207	82.602	637.207	82.7216	637.207	82.3468	637.207	82.5765	637.207	82.0227	637.207	82.3065	637.207	81.676	637.207	81.8946	637.207	81.3076	637.207	81.3391	637.207	80.877	637.207	80.743	637.207	80.314	637.207	80.269	637.207	79.5213	637.207	79.8368	637.207	78.4518	637.207	79.0569	637.207	77.1917	637.207	77.6782	637.207	75.7188	637.207	75.948	637.207	73.8737	637.207	74.3001	637.207	72.6734	637.207	73.0129	637.207	73.4576	637.207	72.8668	637.207	74.8028	637.207	74.0813	637.207	75.8516	637.207	75.4374	637.207	76.5199	637.207	76.3083	637.207	76.673
659.18	82.6237	659.18	82.4916	659.18	82.5668	659.18	82.1968	659.18	82.3387	659.18	81.8209	659.18	81.9833	659.18	81.4243	659.18	81.5828	659.18	80.9703	659.18	81.2034	659.18	80.3811	659.18	80.7807	659.18	79.644	659.18	80.154	659.18	78.7722	659.18	79.2704	659.18	77.6062	659.18	78.2198	659.18	75.9422	659.18	76.9459	659.18	74.093	659.18	75.1197	659.18	72.6762	659.18	72.6353	659.18	72.1846	659.18	70.9927	659.18	73.5687	659.18	71.9407	659.18	75.5774	659.18	73.6847	659.18	76.6692	659.18	75.0396	659.18	76.8168	659.18	75.922	659.18	76.4876
682.617	82.7356	682.617	82.7542	682.617	82.5877	682.617	82.5834	682.617	82.3774	682.617	82.2108	682.617	82.1503	682.617	81.7326	682.617	81.8906	682.617	81.2994	682.617	81.5076	682.617	80.9205	682.617	80.9264	682.617	80.3845	682.617	80.181	682.617	79.4667	682.617	79.3063	682.617	78.1458	682.617	78.1788	682.617	76.4414	682.617	76.6059	682.617	74.2853	682.617	74.5535	682.617	72.2641	682.617	72.3272	682.617	71.6853	682.617	70.9624	682.617	72.6617	682.617	71.7418	682.617	74.5019	682.617	73.8188	682.617	76.1747	682.617	75.7837	682.617	77.2119	682.617	77.0819	682.617	77.5491
707.52	82.9776	707.52	82.881	707.52	82.9159	707.52	82.6477	707.52	82.7064	707.52	82.3236	707.52	82.371	707.52	81.9315	707.52	81.8981	707.52	81.4785	707.52	81.2559	707.52	81.0145	707.52	80.5284	707.52	80.6031	707.52	79.9462	707.52	80.1727	707.52	79.6047	707.52	79.4123	707.52	79.1634	707.52	77.9771	707.52	78.0935	707.52	75.7493	707.52	75.9851	707.52	72.9683	707.52	72.5373	707.52	70.4366	707.52	68.9587	707.52	69.6411	707.52	70.1769	707.52	71.6656	707.52	72.8295	707.52	74.4164	707.52	74.5626	707.52	76.085	707.52	75.7948	707.52	76.4518
732.422	82.8713	732.422	82.7125	732.422	82.8329	732.422	82.4209	732.422	82.552	732.422	82.0431	732.422	82.0765	732.422	81.5858	732.422	81.5732	732.422	80.9895	732.422	81.1647	732.422	80.2548	732.422	80.7305	732.422	79.5464	732.422	80.0964	732.422	78.8445	732.422	79.3837	732.422	77.8188	732.422	78.8849	732.422	76.3584	732.422	78.4204	732.422	74.501	732.422	77.2621	732.422	71.848	732.422	74.8507	732.422	69.3066	732.422	71.203	732.422	70.3505	732.422	67.8671	732.422	72.5539	732.422	69.661	732.422	74.0728	732.422	72.7006	732.422	74.7503	732.422	74.1571	732.422	74.701
757.324	82.4269	757.324	82.2891	757.324	82.2965	757.324	81.9724	757.324	81.8808	757.324	81.572	757.324	81.3119	757.324	81.2302	757.324	80.7298	757.324	80.9742	757.324	80.2463	757.324	80.5544	757.324	80.0128	757.324	79.844	757.324	79.886	757.324	79.1523	757.324	79.521	757.324	78.6123	757.324	78.9071	757.324	77.622	757.324	78.1962	757.324	75.615	757.324	77.3005	757.324	72.5333	757.324	75.8519	757.324	69.2789	757.324	73.6225	757.324	69.1644	757.324	71.8499	757.324	71.0609	757.324	72.2051	757.324	72.8488	757.324	73.8014	757.324	74.4151	757.324	75.1669	757.324	75.3663
785.156	83.0239	785.156	82.9456	785.156	83.0357	785.156	82.6578	785.156	82.9089	785.156	81.965	785.156	82.5043	785.156	80.9284	785.156	81.7786	785.156	79.964	785.156	80.7634	785.156	79.4691	785.156	79.7375	785.156	79.2001	785.156	79.1637	785.156	78.7917	785.156	78.7719	785.156	78.4208	785.156	78.0552	785.156	78.159	785.156	77.0261	785.156	77.605	785.156	75.7578	785.156	76.2528	785.156	74.3451	785.156	73.5388	785.156	72.3903	785.156	69.7557	785.156	68.1474	785.156	67.5585	785.156	65.1369	785.156	66.4201	785.156	69.4074	785.156	67.5902	785.156	70.8157	785.156	69.9739
811.523	83.6571	811.523	83.4119	811.523	83.6343	811.523	83.0048	811.523	83.3207	811.523	82.3773	811.523	82.813	811.523	81.4274	811.523	82.1701	811.523	80.5067	811.523	81.3855	811.523	80.2193	811.523	80.5166	811.523	80.1992	811.523	79.8542	811.523	79.6444	811.523	79.5732	811.523	78.5143	811.523	79.1184	811.523	77.3706	811.523	77.9762	811.523	76.5669	811.523	76.3495	811.523	75.9376	811.523	75.0409	811.523	74.9908	811.523	73.8485	811.523	74.3251	811.523	71.5808	811.523	75.8142	811.523	70.7599	811.523	77.26	811.523	73.7924	811.523	77.5512	811.523	76.2859	811.523	77.2946
840.82	83.2762	840.82	82.9462	840.82	83.2871	840.82	82.3273	840.82	82.9196	840.82	81.4759	840.82	82.2861	840.82	80.577	840.82	81.5692	840.82	79.6367	840.82	80.6089	840.82	78.6095	840.82	79.201	840.82	77.785	840.82	77.9377	840.82	77.0268	840.82	77.5292	840.82	76.3054	840.82	77.3992	840.82	75.7723	840.82	76.9532	840.82	74.2255	840.82	76.2566	840.82	71.1382	840.82	74.7991	840.82	69.1741	840.82	71.3914	840.82	69.5513	840.82	67.6995	840.82	70.991	840.82	69.6622	840.82	73.11	840.82	71.9729	840.82	74.4458	840.82	73.5525	840.82	74.5105
870.117	83.4565	870.117	83.0886	870.117	83.6792	870.117	82.6218	870.117	83.6885	870.117	82.0179	870.117	83.3841	870.117	81.1783	870.117	82.7346	870.117	80.0945	870.117	81.9863	870.117	79.0254	870.117	81.279	870.117	78.6816	870.117	80.3258	870.117	79.0312	870.117	79.3281	870.117	78.7423	870.117	79.3201	870.117	77.834	870.117	79.6705	870.117	77.0742	870.117	78.9776	870.117	74.9646	870.117	77.2248	870.117	70.2823	870.117	75.0455	870.117	68.1792	870.117	71.8461	870.117	69.9457	870.117	70.4392	870.117	72.0198	870.117	71.9668	870.117	73.8758	870.117	73.3	870.117	74.3347
900.879	83.85	900.879	83.6781	900.879	83.7698	900.879	83.3341	900.879	83.5031	900.879	82.8023	900.879	83.0184	900.879	81.835	900.879	82.1454	900.879	80.3291	900.879	81.0642	900.879	78.7948	900.879	80.207	900.879	77.54	900.879	79.5466	900.879	76.1947	900.879	78.3806	900.879	75.6454	900.879	76.6721	900.879	75.7359	900.879	76.1713	900.879	74.8703	900.879	75.7314	900.879	73.6683	900.879	73.7005	900.879	72.2881	900.879	71.4293	900.879	70.1082	900.879	69.6908	900.879	72.024	900.879	70.9998	900.879	74.6356	900.879	73.7257	900.879	75.7058	900.879	74.8839	900.879	75.5457
933.105	84.0972	933.105	83.8813	933.105	84.1518	933.105	83.6214	933.105	83.7574	933.105	83.0212	933.105	82.9424	933.105	81.9501	933.105	81.9785	933.105	80.772	933.105	80.967	933.105	79.6447	933.105	80.0716	933.105	78.6398	933.105	79.5022	933.105	78.0008	933.105	79.0794	933.105	77.5444	933.105	78.6766	933.105	77.1973	933.105	78.0386	933.105	76.4207	933.105	76.9861	933.105	73.1387	933.105	75.1769	933.105	66.9729	933.105	71.4893	933.105	67.7406	933.105	62.7496	933.105	67.8728	933.105	61.9878	933.105	70.6748	933.105	69.9291	933.105	73.3189	933.105	72.2327	933.105	73.4459
965.332	83.6542	965.332	83.53	965.332	83.7292	965.332	83.2354	965.332	83.4099	965.332	82.4947	965.332	82.7531	965.332	81.5762	965.332	82.0216	965.332	80.5585	965.332	81.1877	965.332	79.2527	965.332	80.067	965.332	78.0506	965.332	79.0362	965.332	77.3389	965.332	78.6482	965.332	76.8568	965.332	78.202	965.332	76.5426	965.332	77.7777	965.332	76.0282	965.332	77.6767	965.332	74.4495	965.332	76.9347	965.332	70.5972	965.332	74.6584	965.332	65.0581	965.332	71.2035	965.332	69.587	965.332	66.8343	965.332	72.0517	965.332	70.7693	965.332	73.6032	965.332	74.4076	965.332	74.8053
1,000.49	83.0295	1,000.49	82.7147	1,000.49	82.9519	1,000.49	82.3571	1,000.49	82.5222	1,000.49	81.764	1,000.49	81.8326	1,000.49	80.6812	1,000.49	80.8035	1,000.49	79.5486	1,000.49	79.7145	1,000.49	78.7009	1,000.49	78.6689	1,000.49	78.4974	1,000.49	77.6689	1,000.49	79.146	1,000.49	77.6919	1,000.49	79.4954	1,000.49	78.6228	1,000.49	78.9301	1,000.49	78.8922	1,000.49	77.9569	1,000.49	78.1491	1,000.49	76.3464	1,000.49	77.216	1,000.49	73.4492	1,000.49	75.1319	1,000.49	68.8965	1,000.49	71.3548	1,000.49	63.3417	1,000.49	68.294	1,000.49	66.6807	1,000.49	66.785	1,000.49	70.2689	1,000.49	69.7002	1,000.49	71.0271
1,035.64	82.5924	1,035.64	82.3487	1,035.64	82.8216	1,035.64	82.1106	1,035.64	82.6082	1,035.64	81.4001	1,035.64	81.9066	1,035.64	80.1233	1,035.64	80.7411	1,035.64	78.7019	1,035.64	79.3768	1,035.64	76.8061	1,035.64	78.1749	1,035.64	74.8166	1,035.64	76.9275	1,035.64	74.5645	1,035.64	75.3735	1,035.64	75.1351	1,035.64	74.2572	1,035.64	76.4569	1,035.64	75.8349	1,035.64	77.1575	1,035.64	76.7056	1,035.64	76.0935	1,035.64	76.4261	1,035.64	72.4055	1,035.64	74.9506	1,035.64	67.4809	1,035.64	69.5525	1,035.64	68.3746	1,035.64	67.848	1,035.64	70.2353	1,035.64	71.6704	1,035.64	72.7714	1,035.64	73.6041	1,035.64	74.2644
1,072.27	83.215	1,072.27	82.6535	1,072.27	83.2136	1,072.27	82.0711	1,072.27	82.5072	1,072.27	81.0704	1,072.27	81.7792	1,072.27	79.1441	1,072.27	80.7834	1,072.27	77.335	1,072.27	78.9093	1,072.27	76.0529	1,072.27	76.7088	1,072.27	73.8367	1,072.27	75.2378	1,072.27	73.8383	1,072.27	74.9814	1,072.27	75.8382	1,072.27	74.8377	1,072.27	76.3683	1,072.27	75.0791	1,072.27	75.4626	1,072.27	76.1082	1,072.27	74.3384	1,072.27	75.9238	1,072.27	72.8131	1,072.27	74.2852	1,072.27	69.1883	1,072.27	71.0888	1,072.27	67.3941	1,072.27	66.8326	1,072.27	70.3494	1,072.27	70.0895	1,072.27	72.2226	1,072.27	72.1094	1,072.27	72.5508
1,108.89	82.4374	1,108.89	82.4513	1,108.89	82.3578	1,108.89	81.888	1,108.89	81.9679	1,108.89	81.0028	1,108.89	80.9745	1,108.89	80.049	1,108.89	79.7211	1,108.89	78.6854	1,108.89	78.2129	1,108.89	76.911	1,108.89	76.8225	1,108.89	74.5815	1,108.89	75.3219	1,108.89	71.3952	1,108.89	73.095	1,108.89	71.4827	1,108.89	71.5945	1,108.89	72.8908	1,108.89	72.356	1,108.89	73.055	1,108.89	72.3515	1,108.89	71.8145	1,108.89	72.4322	1,108.89	69.0396	1,108.89	71.9068	1,108.89	63.0487	1,108.89	66.2202	1,108.89	66.0719	1,108.89	64.077	1,108.89	69.6725	1,108.89	70.403	1,108.89	73.1754	1,108.89	72.5478	1,108.89	74.5415
1,148.44	80.9724	1,148.44	81.226	1,148.44	81.3697	1,148.44	81.1661	1,148.44	81.1574	1,148.44	80.3064	1,148.44	80.2673	1,148.44	79.5868	1,148.44	79.4123	1,148.44	78.8191	1,148.44	78.3879	1,148.44	77.0814	1,148.44	77.1941	1,148.44	74.2823	1,148.44	75.1908	1,148.44	71.363	1,148.44	72.9802	1,148.44	70.2296	1,148.44	69.7788	1,148.44	71.3079	1,148.44	67.7162	1,148.44	71.7822	1,148.44	68.8967	1,148.44	72.4872	1,148.44	69.6528	1,148.44	71.1926	1,148.44	70.162	1,148.44	63.7556	1,148.44	67.613	1,148.44	61.821	1,148.44	58.6362	1,148.44	67.242	1,148.44	64.1795	1,148.44	70.0932	1,148.44	68.6358	1,148.44	70.2137
1,189.45	82.4366	1,189.45	82.1868	1,189.45	81.9411	1,189.45	81.1467	1,189.45	81.8432	1,189.45	80.7155	1,189.45	81.3763	1,189.45	80.0338	1,189.45	80.4864	1,189.45	78.9164	1,189.45	78.7001	1,189.45	78.0264	1,189.45	76.8484	1,189.45	77.0099	1,189.45	76.4215	1,189.45	74.4672	1,189.45	74.735	1,189.45	68.6997	1,189.45	73.0325	1,189.45	66.7937	1,189.45	72.2797	1,189.45	71.2189	1,189.45	70.5831	1,189.45	72.2219	1,189.45	69.1452	1,189.45	68.4072	1,189.45	64.0472	1,189.45	60.8814	1,189.45	61.6745	1,189.45	61.5568	1,189.45	54.3818	1,189.45	69.1547	1,189.45	61.4734	1,189.45	71.3244	1,189.45	65.1615	1,189.45	69.2191
1,230.47	82.1279	1,230.47	82.1939	1,230.47	81.8439	1,230.47	81.5276	1,230.47	81.6631	1,230.47	80.7333	1,230.47	81.3342	1,230.47	79.9944	1,230.47	80.7522	1,230.47	78.8133	1,230.47	80.1436	1,230.47	77.8116	1,230.47	78.5269	1,230.47	76.9357	1,230.47	76.6379	1,230.47	75.3665	1,230.47	76.406	1,230.47	72.7491	1,230.47	75.3766	1,230.47	68.9534	1,230.47	72.9017	1,230.47	69.6234	1,230.47	71.1227	1,230.47	71.1075	1,230.47	70.6897	1,230.47	70.3428	1,230.47	70.5973	1,230.47	61.7991	1,230.47	68.3324	1,230.47	58.7341	1,230.47	58.4261	1,230.47	68.2669	1,230.47	62.1316	1,230.47	71.8351	1,230.47	68.0462	1,230.47	71.0886
1,274.41	82.4774	1,274.41	82.1339	1,274.41	82.3553	1,274.41	81.6394	1,274.41	82.2059	1,274.41	81.229	1,274.41	81.4467	1,274.41	80.5285	1,274.41	80.3451	1,274.41	79.4092	1,274.41	79.6898	1,274.41	78.6601	1,274.41	78.8614	1,274.41	77.5919	1,274.41	77.4896	1,274.41	75.114	1,274.41	75.8816	1,274.41	72.9771	1,274.41	74.4867	1,274.41	71.0853	1,274.41	74.6104	1,274.41	71.4611	1,274.41	74.0964	1,274.41	72.1916	1,274.41	72.2633	1,274.41	71.3079	1,274.41	70.5265	1,274.41	66.679	1,274.41	68.9751	1,274.41	48.4925	1,274.41	63.0857	1,274.41	65.1813	1,274.41	58.6621	1,274.41	68.6003	1,274.41	65.9505	1,274.41	66.8014
1,319.82	82.9793	1,319.82	82.691	1,319.82	82.5283	1,319.82	81.7874	1,319.82	82.2766	1,319.82	81.0734	1,319.82	81.6178	1,319.82	79.98	1,319.82	80.4335	1,319.82	79.2819	1,319.82	79.995	1,319.82	78.6332	1,319.82	78.9452	1,319.82	77.6512	1,319.82	77.1393	1,319.82	76.1836	1,319.82	76.5852	1,319.82	72.5551	1,319.82	74.9474	1,319.82	70.6992	1,319.82	73.4928	1,319.82	72.0563	1,319.82	73.9882	1,319.82	72.7655	1,319.82	74.0161	1,319.82	72.1469	1,319.82	73.715	1,319.82	68.9864	1,319.82	70.689	1,319.82	59.1151	1,319.82	64.8059	1,319.82	59.6682	1,319.82	46.584	1,319.82	68.7011	1,319.82	66.7797	1,319.82	69.9226
1,366.7	83.2302	1,366.7	83.1211	1,366.7	82.9752	1,366.7	82.7059	1,366.7	82.1889	1,366.7	81.7531	1,366.7	81.4879	1,366.7	80.8879	1,366.7	81.2343	1,366.7	80.0299	1,366.7	80.3867	1,366.7	78.6519	1,366.7	79.9912	1,366.7	77.0566	1,366.7	78.3478	1,366.7	75.1244	1,366.7	76.3279	1,366.7	73.7469	1,366.7	76.0107	1,366.7	73.5171	1,366.7	74.3228	1,366.7	72.1975	1,366.7	74.4679	1,366.7	71.2194	1,366.7	74.7876	1,366.7	68.7224	1,366.7	72.791	1,366.7	66.4207	1,366.7	70.6617	1,366.7	55.6007	1,366.7	62.6232	1,366.7	63.2789	1,366.7	57.572	1,366.7	66.6253	1,366.7	65.8861	1,366.7	68.2609
1,413.57	83.355	1,413.57	82.9458	1,413.57	83.4098	1,413.57	82.495	1,413.57	82.8298	1,413.57	82.0099	1,413.57	82.2643	1,413.57	81.2526	1,413.57	81.3658	1,413.57	79.7491	1,413.57	79.7723	1,413.57	78.0653	1,413.57	78.4532	1,413.57	76.1618	1,413.57	77.0097	1,413.57	74.0998	1,413.57	76.2169	1,413.57	72.6904	1,413.57	74.1181	1,413.57	71.4676	1,413.57	71.7482	1,413.57	70.1761	1,413.57	72.654	1,413.57	68.4536	1,413.57	73.3863	1,413.57	69.9624	1,413.57	71.1907	1,413.57	70.9007	1,413.57	68.3357	1,413.57	63.6671	1,413.57	64.619	1,413.57	59.9204	1,413.57	49.7902	1,413.57	65.0572	1,413.57	65.8298	1,413.57	67.4831
1,463.38	82.878	1,463.38	82.8098	1,463.38	82.9444	1,463.38	82.3426	1,463.38	82.6147	1,463.38	82.2142	1,463.38	82.0899	1,463.38	80.9793	1,463.38	80.8702	1,463.38	79.3742	1,463.38	79.415	1,463.38	77.9719	1,463.38	77.9255	1,463.38	76.5379	1,463.38	76.4449	1,463.38	75.2108	1,463.38	74.2729	1,463.38	72.6498	1,463.38	71.6715	1,463.38	69.279	1,463.38	68.6965	1,463.38	69.9147	1,463.38	69.7133	1,463.38	70.6932	1,463.38	70.3861	1,463.38	70.3601	1,463.38	70.3064	1,463.38	70.8808	1,463.38	70.772	1,463.38	62.3253	1,463.38	65.5209	1,463.38	54.5017	1,463.38	56.7026	1,463.38	64.9407	1,463.38	64.0977	1,463.38	68.2418
1,516.11	82.2605	1,516.11	82.0997	1,516.11	81.9547	1,516.11	81.5444	1,516.11	81.4253	1,516.11	81.2938	1,516.11	80.7889	1,516.11	80.3816	1,516.11	79.9745	1,516.11	78.9872	1,516.11	79.3048	1,516.11	77.6347	1,516.11	77.1791	1,516.11	75.7021	1,516.11	75.4615	1,516.11	74.0734	1,516.11	74.1674	1,516.11	71.123	1,516.11	71.4411	1,516.11	68.4857	1,516.11	67.325	1,516.11	69.5975	1,516.11	64.7792	1,516.11	69.2951	1,516.11	65.9626	1,516.11	71.3224	1,516.11	71.9423	1,516.11	69.0538	1,516.11	71.7368	1,516.11	64.3967	1,516.11	67.2641	1,516.11	45.461	1,516.11	59.9884	1,516.11	63.1633	1,516.11	62.1553	1,516.11	64.996
1,568.85	81.6588	1,568.85	80.8971	1,568.85	81.415	1,568.85	80.524	1,568.85	80.3605	1,568.85	79.9941	1,568.85	79.604	1,568.85	78.7292	1,568.85	79.2552	1,568.85	77.8072	1,568.85	78.4127	1,568.85	76.9852	1,568.85	77.0464	1,568.85	75.8401	1,568.85	75.1498	1,568.85	73.6132	1,568.85	74.644	1,568.85	71.353	1,568.85	72.0356	1,568.85	68.9648	1,568.85	69.8628	1,568.85	68.5245	1,568.85	70.7917	1,568.85	70.4062	1,568.85	67.8728	1,568.85	68.9891	1,568.85	69.3355	1,568.85	67.7094	1,568.85	70.7748	1,568.85	66.4184	1,568.85	68.3024	1,568.85	46.8655	1,568.85	59.8676	1,568.85	64.3828	1,568.85	63.0551	1,568.85	65.7086
1,624.51	82.0061	1,624.51	80.8765	1,624.51	81.5172	1,624.51	80.0013	1,624.51	81.231	1,624.51	79.0281	1,624.51	79.8097	1,624.51	77.4482	1,624.51	79.0097	1,624.51	77.4453	1,624.51	78.8019	1,624.51	77.0052	1,624.51	77.5098	1,624.51	75.352	1,624.51	76.6312	1,624.51	74.3798	1,624.51	75.6176	1,624.51	72.1492	1,624.51	72.8829	1,624.51	68.6238	1,624.51	71.3424	1,624.51	65.9849	1,624.51	70.278	1,624.51	67.2429	1,624.51	69.4471	1,624.51	68.0789	1,624.51	71.7555	1,624.51	70.1183	1,624.51	71.6678	1,624.51	67.5948	1,624.51	69.861	1,624.51	55.1842	1,624.51	66.5651	1,624.51	62.8042	1,624.51	57.9905	1,624.51	55.6457
1,681.64	82.7652	1,681.64	82.4038	1,681.64	82.5205	1,681.64	81.8442	1,681.64	82.3967	1,681.64	80.4239	1,681.64	81.4541	1,681.64	78.9572	1,681.64	80.6628	1,681.64	77.7689	1,681.64	78.4474	1,681.64	76.3204	1,681.64	78.315	1,681.64	77.2825	1,681.64	77.2049	1,681.64	75.0803	1,681.64	75.4558	1,681.64	74.9239	1,681.64	75.1951	1,681.64	67.8683	1,681.64	73.3932	1,681.64	67.7482	1,681.64	72.7165	1,681.64	69.3297	1,681.64	72.7044	1,681.64	70.1713	1,681.64	72.9302	1,681.64	70.5767	1,681.64	70.0841	1,681.64	71.4473	1,681.64	70.1232	1,681.64	59.6832	1,681.64	68.4134	1,681.64	64.59	1,681.64	63.4997	1,681.64	64.0549
1,741.7	82.9303	1,741.7	83.3568	1,741.7	82.6279	1,741.7	82.5119	1,741.7	83.101	1,741.7	81.5304	1,741.7	81.8526	1,741.7	80.5447	1,741.7	81.1901	1,741.7	78.3595	1,741.7	79.2379	1,741.7	78.0437	1,741.7	79.2656	1,741.7	77.4605	1,741.7	77.9303	1,741.7	78.154	1,741.7	76.4104	1,741.7	75.8992	1,741.7	75.2956	1,741.7	71.8789	1,741.7	73.3587	1,741.7	67.1365	1,741.7	68.4713	1,741.7	63.659	1,741.7	67.2589	1,741.7	71.4242	1,741.7	70.849	1,741.7	71.8407	1,741.7	72.0087	1,741.7	70.0885	1,741.7	69.847	1,741.7	64.9773	1,741.7	67.5395	1,741.7	42.1769	1,741.7	64.7617	1,741.7	61.6317
1,803.22	83.6939	1,803.22	83.6679	1,803.22	83.4406	1,803.22	83.3856	1,803.22	83.648	1,803.22	82.4053	1,803.22	82.6605	1,803.22	80.8289	1,803.22	81.1785	1,803.22	80.0315	1,803.22	79.8327	1,803.22	78.6093	1,803.22	78.9771	1,803.22	76.4632	1,803.22	78.3868	1,803.22	76.7763	1,803.22	77.3862	1,803.22	75.7029	1,803.22	73.9024	1,803.22	72.9126	1,803.22	69.1509	1,803.22	64.9326	1,803.22	68.7058	1,803.22	60.803	1,803.22	70.137	1,803.22	69.2598	1,803.22	69.6352	1,803.22	70.3251	1,803.22	72.5437	1,803.22	69.9578	1,803.22	69.961	1,803.22	68.9992	1,803.22	68.0562	1,803.22	61.9899	1,803.22	68.6013	1,803.22	62.8562
1,866.21	83.5535	1,866.21	83.3938	1,866.21	83.4116	1,866.21	83.3155	1,866.21	83.2695	1,866.21	82.1457	1,866.21	82.6246	1,866.21	81.6006	1,866.21	80.3101	1,866.21	79.276	1,866.21	80.0769	1,866.21	77.6726	1,866.21	77.4427	1,866.21	75.5945	1,866.21	76.0604	1,866.21	76.8439	1,866.21	74.658	1,866.21	76.6431	1,866.21	74.6911	1,866.21	71.3467	1,866.21	73.0577	1,866.21	66.1551	1,866.21	68.126	1,866.21	57.8274	1,866.21	63.256	1,866.21	64.998	1,866.21	66.6972	1,866.21	66.7019	1,866.21	71.3371	1,866.21	68.103	1,866.21	68.8428	1,866.21	65.5344	1,866.21	65.9734	1,866.21	68.6148	1,866.21	67.5284	1,866.21	68.728
1,932.13	83.0535	1,932.13	82.8759	1,932.13	82.8727	1,932.13	82.3273	1,932.13	82.6939	1,932.13	81.6948	1,932.13	81.5476	1,932.13	80.2283	1,932.13	80.6644	1,932.13	78.4854	1,932.13	78.9209	1,932.13	76.9219	1,932.13	77.1339	1,932.13	74.8838	1,932.13	75.7347	1,932.13	73.3426	1,932.13	73.523	1,932.13	72.7178	1,932.13	73.3468	1,932.13	73.0351	1,932.13	71.3923	1,932.13	68.5907	1,932.13	69.6736	1,932.13	67.4457	1,932.13	65.7348	1,932.13	68.1169	1,932.13	64.0794	1,932.13	67.5623	1,932.13	68.4754	1,932.13	66.6495	1,932.13	67.5319	1,932.13	65.1428	1,932.13	65.4864	1,932.13	66.2279	1,932.13	62.4003	1,932.13	66.8306
1,999.51	83.0977	1,999.51	82.641	1,999.51	83.1312	1,999.51	81.9559	1,999.51	82.75	1,999.51	81.2768	1,999.51	82.1861	1,999.51	79.8456	1,999.51	80.9052	1,999.51	78.0919	1,999.51	79.4392	1,999.51	75.4521	1,999.51	77.4678	1,999.51	72.8379	1,999.51	75.4798	1,999.51	71.8964	1,999.51	73.704	1,999.51	71.9256	1,999.51	73.0944	1,999.51	71.0575	1,999.51	72.2505	1,999.51	69.3738	1,999.51	70.684	1,999.51	66.0343	1,999.51	67.3094	1,999.51	66.663	1,999.51	64.4783	1,999.51	67.7283	1,999.51	67.3361	1,999.51	63.6093	1,999.51	67.0077	1,999.51	61.9294	1,999.51	65.1092	1,999.51	66.3712	1,999.51	65.1848	1,999.51	65.7553
2,069.82	83.685	2,069.82	83.1736	2,069.82	83.5102	2,069.82	82.6269	2,069.82	83.248	2,069.82	81.5135	2,069.82	82.6562	2,069.82	80.4133	2,069.82	81.5994	2,069.82	78.3662	2,069.82	80.2295	2,069.82	75.5644	2,069.82	78.2823	2,069.82	72.6561	2,069.82	76.2481	2,069.82	70.3939	2,069.82	73.3722	2,069.82	70.0071	2,069.82	72.5927	2,069.82	70.7103	2,069.82	71.9371	2,069.82	68.3418	2,069.82	70.6973	2,069.82	62.2091	2,069.82	66.8054	2,069.82	65.709	2,069.82	67.2034	2,069.82	67.6548	2,069.82	68.032	2,069.82	63.6746	2,069.82	67.568	2,069.82	59.0442	2,069.82	63.8707	2,069.82	62.635	2,069.82	65.0467	2,069.82	66.7618
2,143.07	83.7348	2,143.07	83.3105	2,143.07	83.6999	2,143.07	82.5704	2,143.07	83.3711	2,143.07	81.6471	2,143.07	82.8042	2,143.07	80.2636	2,143.07	81.637	2,143.07	78.5893	2,143.07	80.3316	2,143.07	76.2682	2,143.07	78.2454	2,143.07	72.8555	2,143.07	75.9681	2,143.07	70.4083	2,143.07	73.2489	2,143.07	68.9646	2,143.07	71.9172	2,143.07	68.6852	2,143.07	70.8755	2,143.07	68.2106	2,143.07	69.7354	2,143.07	63.9233	2,143.07	66.9989	2,143.07	65.3014	2,143.07	66.2573	2,143.07	68.4048	2,143.07	69.0764	2,143.07	68.4873	2,143.07	68.1469	2,143.07	60.8227	2,143.07	64.0053	2,143.07	64.2924	2,143.07	63.4126	2,143.07	68.1611
2,219.24	83.3834	2,219.24	83.034	2,219.24	83.2166	2,219.24	82.1566	2,219.24	82.8424	2,219.24	81.5257	2,219.24	81.7549	2,219.24	80.2554	2,219.24	80.8092	2,219.24	79.2356	2,219.24	79.5791	2,219.24	77.2993	2,219.24	77.9752	2,219.24	75.4952	2,219.24	75.7967	2,219.24	71.7942	2,219.24	73.7378	2,219.24	70.2383	2,219.24	70.4775	2,219.24	69.9846	2,219.24	70.0775	2,219.24	69.5702	2,219.24	70.415	2,219.24	67.9368	2,219.24	68.0513	2,219.24	63.7207	2,219.24	63.9959	2,219.24	68.4704	2,219.24	68.3667	2,219.24	68.7064	2,219.24	68.8611	2,219.24	62.7611	2,219.24	63.4903	2,219.24	62.4289	2,219.24	64.1569	2,219.24	64.9064
2,296.88	81.8899	2,296.88	81.1843	2,296.88	81.9009	2,296.88	80.823	2,296.88	81.2836	2,296.88	79.7411	2,296.88	80.585	2,296.88	79.1582	2,296.88	79.0609	2,296.88	78.7066	2,296.88	78.3082	2,296.88	77.9374	2,296.88	77.0623	2,296.88	76.0755	2,296.88	75.9151	2,296.88	75.7638	2,296.88	74.3763	2,296.88	73.0533	2,296.88	72.3072	2,296.88	70.7387	2,296.88	70.8907	2,296.88	70.1925	2,296.88	69.2095	2,296.88	68.3371	2,296.88	66.7291	2,296.88	67.68	2,296.88	65.6926	2,296.88	70.4915	2,296.88	67.6538	2,296.88	69.9262	2,296.88	69.6586	2,296.88	65.1207	2,296.88	66.3338	2,296.88	64.4988	2,296.88	60.3146	2,296.88	66.6676
2,378.91	81.0665	2,378.91	80.8815	2,378.91	80.9337	2,378.91	79.9219	2,378.91	80.9158	2,378.91	79.4508	2,378.91	80.2694	2,378.91	78.6338	2,378.91	79.9006	2,378.91	77.5293	2,378.91	79.1817	2,378.91	77.1312	2,378.91	78.0669	2,378.91	75.9166	2,378.91	76.5088	2,378.91	74.0867	2,378.91	75.0162	2,378.91	71.6769	2,378.91	72.4916	2,378.91	69.79	2,378.91	71.7066	2,378.91	67.9588	2,378.91	70.8676	2,378.91	68.0637	2,378.91	70.3068	2,378.91	65.1114	2,378.91	65.8445	2,378.91	70.2694	2,378.91	67.248	2,378.91	71.4056	2,378.91	70.5131	2,378.91	67.0454	2,378.91	68.6126	2,378.91	65.6927	2,378.91	65.7744	2,378.91	68.6621
2,462.4	81.3358	2,462.4	80.8998	2,462.4	81.4527	2,462.4	80.8262	2,462.4	81.4707	2,462.4	80.2803	2,462.4	81.4456	2,462.4	79.8471	2,462.4	80.8281	2,462.4	78.6395	2,462.4	80.1877	2,462.4	77.6865	2,462.4	79.1388	2,462.4	76.2254	2,462.4	77.8025	2,462.4	73.9627	2,462.4	76.2742	2,462.4	72.2218	2,462.4	75.2078	2,462.4	70.5266	2,462.4	73.6441	2,462.4	68.7503	2,462.4	71.9826	2,462.4	67.3604	2,462.4	70.9958	2,462.4	63.7274	2,462.4	67.2509	2,462.4	68.4893	2,462.4	68.5989	2,462.4	69.6431	2,462.4	71.2023	2,462.4	66.2373	2,462.4	69.3714	2,462.4	64.2848	2,462.4	68.1089	2,462.4	65.3159
2,548.83	80.8733	2,548.83	80.8941	2,548.83	81.3986	2,548.83	80.9334	2,548.83	81.2589	2,548.83	80.2797	2,548.83	81.1138	2,548.83	79.5606	2,548.83	80.6202	2,548.83	79.2491	2,548.83	79.7867	2,548.83	77.8878	2,548.83	78.3387	2,548.83	76.6783	2,548.83	77.1333	2,548.83	75.0278	2,548.83	75.1051	2,548.83	72.1237	2,548.83	73.882	2,548.83	70.1633	2,548.83	72.3737	2,548.83	69.6231	2,548.83	71.4398	2,548.83	68.133	2,548.83	69.8114	2,548.83	63.6353	2,548.83	66.6038	2,548.83	67.8168	2,548.83	66.4689	2,548.83	69.545	2,548.83	69.5953	2,548.83	65.654	2,548.83	66.3177	2,548.83	67.2316	2,548.83	63.9173	2,548.83	67.2562
2,639.65	79.1152	2,639.65	79.6949	2,639.65	79.0946	2,639.65	79.1099	2,639.65	79.5988	2,639.65	79.3247	2,639.65	78.9889	2,639.65	77.7468	2,639.65	78.7523	2,639.65	76.8872	2,639.65	77.9341	2,639.65	76.0877	2,639.65	77.0083	2,639.65	75.5419	2,639.65	75.628	2,639.65	72.0128	2,639.65	73.2157	2,639.65	71.5713	2,639.65	70.8457	2,639.65	69.5513	2,639.65	69.4025	2,639.65	66.7214	2,639.65	68.2657	2,639.65	67.8154	2,639.65	67.9185	2,639.65	65.3968	2,639.65	66.0409	2,639.65	65.9356	2,639.65	65.6354	2,639.65	68.9149	2,639.65	67.0211	2,639.65	65.7158	2,639.65	66.2596	2,639.65	63.498	2,639.65	63.7019	2,639.65	64.6064
2,731.93	77.7187	2,731.93	78.1972	2,731.93	77.173	2,731.93	77.815	2,731.93	77.7768	2,731.93	77.8289	2,731.93	77.3845	2,731.93	76.8647	2,731.93	77.469	2,731.93	75.3244	2,731.93	76.2079	2,731.93	73.869	2,731.93	75.7329	2,731.93	73.2802	2,731.93	74.6321	2,731.93	69.7827	2,731.93	72.3078	2,731.93	68.8476	2,731.93	70.4903	2,731.93	66	2,731.93	69.5314	2,731.93	65.3048	2,731.93	66.1096	2,731.93	65.4839	2,731.93	62.0273	2,731.93	63.5125	2,731.93	64.5482	2,731.93	65.2337	2,731.93	62.1106	2,731.93	64.9396	2,731.93	65.3473	2,731.93	60.4656	2,731.93	64.5221	2,731.93	63.3873	2,731.93	60.3754	2,731.93	65.9154
2,828.61	77.2074	2,828.61	77.5165	2,828.61	78.0666	2,828.61	78.4205	2,828.61	77.5375	2,828.61	77.9992	2,828.61	78.2567	2,828.61	77.5894	2,828.61	78.2099	2,828.61	76.085	2,828.61	77.5813	2,828.61	74.7361	2,828.61	76.282	2,828.61	72.086	2,828.61	75.1929	2,828.61	71.2842	2,828.61	73.1498	2,828.61	68.2395	2,828.61	71.2892	2,828.61	67.6521	2,828.61	69.8339	2,828.61	65.7728	2,828.61	66.7911	2,828.61	63.9354	2,828.61	65.8382	2,828.61	62.6591	2,828.61	63.288	2,828.61	63.3389	2,828.61	61.2054	2,828.61	66.2185	2,828.61	65.9279	2,828.61	63.4109	2,828.61	65.216	2,828.61	61.7818	2,828.61	62.8162	2,828.61	66.7778
2,928.22	79.457	2,928.22	79.3906	2,928.22	79.8001	2,928.22	79.7635	2,928.22	79.6302	2,928.22	79.5743	2,928.22	80.343	2,928.22	79.2225	2,928.22	79.8511	2,928.22	78.3893	2,928.22	79.2899	2,928.22	76.4477	2,928.22	78.1869	2,928.22	74.1043	2,928.22	76.1284	2,928.22	73.972	2,928.22	73.9375	2,928.22	71.4422	2,928.22	72.1166	2,928.22	69.9195	2,928.22	69.4182	2,928.22	68.023	2,928.22	69.7096	2,928.22	66.5857	2,928.22	68.7796	2,928.22	61.9489	2,928.22	66.2941	2,928.22	62.8689	2,928.22	63.9923	2,928.22	67.4228	2,928.22	66.3522	2,928.22	61.9723	2,928.22	65.467	2,928.22	65.049	2,928.22	62.9631	2,928.22	66.3794
3,030.76	80.4928	3,030.76	80.2749	3,030.76	81.3454	3,030.76	80.7806	3,030.76	81.2145	3,030.76	80.8914	3,030.76	81.5922	3,030.76	80.1228	3,030.76	81.2087	3,030.76	79.9239	3,030.76	80.3385	3,030.76	77.8546	3,030.76	78.5568	3,030.76	76.653	3,030.76	76.9172	3,030.76	75.1084	3,030.76	75.4288	3,030.76	72.1451	3,030.76	73.6044	3,030.76	71.3282	3,030.76	70.903	3,030.76	68.9665	3,030.76	69.4469	3,030.76	67.9627	3,030.76	67.6047	3,030.76	67.7347	3,030.76	68.4273	3,030.76	63.538	3,030.76	65.0732	3,030.76	68.8635	3,030.76	67.0103	3,030.76	65.8931	3,030.76	66.5212	3,030.76	66.4391	3,030.76	60.8053	3,030.76	66.7012
3,137.7	81.3207	3,137.7	81.7869	3,137.7	81.3324	3,137.7	81.9849	3,137.7	82.1114	3,137.7	81.925	3,137.7	81.903	3,137.7	81.5959	3,137.7	81.7085	3,137.7	81.0158	3,137.7	80.5524	3,137.7	78.7461	3,137.7	78.8459	3,137.7	77.4042	3,137.7	77.061	3,137.7	75.2278	3,137.7	75.6902	3,137.7	73.8493	3,137.7	74.1614	3,137.7	71.2299	3,137.7	71.1139	3,137.7	68.6721	3,137.7	69.1179	3,137.7	67.5419	3,137.7	67.1323	3,137.7	67.7408	3,137.7	68.0931	3,137.7	65.7775	3,137.7	66.3569	3,137.7	68.9418	3,137.7	68.0323	3,137.7	66.5668	3,137.7	67.5917	3,137.7	64.5131	3,137.7	63.2146	3,137.7	66.6328
3,249.02	81.7594	3,249.02	82.0232	3,249.02	81.7095	3,249.02	82.1323	3,249.02	81.9154	3,249.02	82.0637	3,249.02	81.9128	3,249.02	81.8058	3,249.02	81.6502	3,249.02	80.7321	3,249.02	80.8766	3,249.02	79.1942	3,249.02	79.5946	3,249.02	77.7761	3,249.02	77.5901	3,249.02	75.0748	3,249.02	76.0584	3,249.02	73.2569	3,249.02	74.324	3,249.02	72.0152	3,249.02	72.2486	3,249.02	69.3597	3,249.02	71.7031	3,249.02	66.8744	3,249.02	68.5122	3,249.02	67.7835	3,249.02	66.898	3,249.02	67.4094	3,249.02	66.8389	3,249.02	67.9423	3,249.02	68.2462	3,249.02	66.3556	3,249.02	68.9509	3,249.02	61.2185	3,249.02	62.171	3,249.02	64.0906
3,363.28	82.7472	3,363.28	82.9942	3,363.28	82.4171	3,363.28	82.8608	3,363.28	83.16	3,363.28	82.5172	3,363.28	82.9987	3,363.28	82.4034	3,363.28	82.3822	3,363.28	80.5042	3,363.28	81.2797	3,363.28	79.4375	3,363.28	80.6313	3,363.28	77.4645	3,363.28	78.7088	3,363.28	74.605	3,363.28	76.3308	3,363.28	72.7184	3,363.28	74.2178	3,363.28	71.5202	3,363.28	72.0525	3,363.28	70.0181	3,363.28	70.835	3,363.28	67.1772	3,363.28	69.3372	3,363.28	68.5949	3,363.28	67.9254	3,363.28	64.7521	3,363.28	65.6302	3,363.28	68.8051	3,363.28	68.3054	3,363.28	67.4869	3,363.28	68.9581	3,363.28	66.6898	3,363.28	62.5362	3,363.28	68.1571
3,481.93	84.1892	3,481.93	83.9237	3,481.93	84.6731	3,481.93	84.2301	3,481.93	83.7352	3,481.93	84.3153	3,481.93	83.8646	3,481.93	82.9613	3,481.93	83.0513	3,481.93	81.1665	3,481.93	82.6282	3,481.93	80.1319	3,481.93	81.566	3,481.93	78.1502	3,481.93	79.5135	3,481.93	75.9176	3,481.93	77.6554	3,481.93	73.5354	3,481.93	75.4574	3,481.93	71.4607	3,481.93	71.8007	3,481.93	70.7081	3,481.93	70.3935	3,481.93	68.4519	3,481.93	69.2915	3,481.93	69.4594	3,481.93	68.1956	3,481.93	67.2162	3,481.93	68.7372	3,481.93	68.6566	3,481.93	68.3971	3,481.93	68.5518	3,481.93	69.7268	3,481.93	64.108	3,481.93	65.4195	3,481.93	67.9865
3,604.98	84.2871	3,604.98	83.9379	3,604.98	84.4012	3,604.98	84.0769	3,604.98	83.9471	3,604.98	84.3503	3,604.98	84.2986	3,604.98	83.6558	3,604.98	83.7795	3,604.98	82.7299	3,604.98	83.0482	3,604.98	81.1849	3,604.98	81.6113	3,604.98	78.1136	3,604.98	79.3591	3,604.98	76.8227	3,604.98	78.7165	3,604.98	73.9604	3,604.98	76.2317	3,604.98	72.509	3,604.98	73.5351	3,604.98	70.9005	3,604.98	71.2539	3,604.98	66.5426	3,604.98	69.5427	3,604.98	69.5512	3,604.98	67.9951	3,604.98	68.3994	3,604.98	70.4689	3,604.98	69.6085	3,604.98	67.9104	3,604.98	70.256	3,604.98	70.3163	3,604.98	63.3077	3,604.98	66.7542	3,604.98	65.8635
3,732.42	84.4564	3,732.42	84.3107	3,732.42	84.7878	3,732.42	84.2496	3,732.42	85.0957	3,732.42	84.0027	3,732.42	84.7354	3,732.42	83.2928	3,732.42	84.6206	3,732.42	82.8877	3,732.42	83.9892	3,732.42	81.6911	3,732.42	82.1108	3,732.42	80.1179	3,732.42	80.7065	3,732.42	77.6458	3,732.42	78.4477	3,732.42	75.6978	3,732.42	75.4135	3,732.42	71.8776	3,732.42	74.5163	3,732.42	70.2496	3,732.42	70.6736	3,732.42	69.5336	3,732.42	69.1494	3,732.42	67.1034	3,732.42	67.6459	3,732.42	68.4665	3,732.42	70.4421	3,732.42	69.7609	3,732.42	67.6646	3,732.42	70.548	3,732.42	71.9013	3,732.42	66.7253	3,732.42	66.0092	3,732.42	66.5019
3,864.26	83.7648	3,864.26	84.3562	3,864.26	83.4935	3,864.26	84.3548	3,864.26	84.2333	3,864.26	83.8197	3,864.26	84.187	3,864.26	84.198	3,864.26	83.7486	3,864.26	82.8712	3,864.26	82.6892	3,864.26	81.0976	3,864.26	81.3259	3,864.26	79.3602	3,864.26	80.0454	3,864.26	76.7488	3,864.26	77.7963	3,864.26	75.6596	3,864.26	75.0615	3,864.26	71.8009	3,864.26	72.9138	3,864.26	69.8426	3,864.26	69.6251	3,864.26	69.5248	3,864.26	69.3994	3,864.26	66.6146	3,864.26	66.4364	3,864.26	69.4176	3,864.26	67.7082	3,864.26	68.1931	3,864.26	68.1595	3,864.26	68.8485	3,864.26	70.2315	3,864.26	65.8697	3,864.26	65.4682	3,864.26	67.4642
4,000.49	82.9149	4,000.49	83.2226	4,000.49	82.9193	4,000.49	82.6737	4,000.49	82.7687	4,000.49	82.5183	4,000.49	82.568	4,000.49	82.4491	4,000.49	82.2652	4,000.49	81.0511	4,000.49	81.1905	4,000.49	79.2978	4,000.49	80.5815	4,000.49	77.8485	4,000.49	79.5608	4,000.49	75.1884	4,000.49	76.8639	4,000.49	73.2211	4,000.49	73.9291	4,000.49	71.3784	4,000.49	72.0895	4,000.49	68.1241	4,000.49	70.6126	4,000.49	67.6385	4,000.49	67.7321	4,000.49	65.59	4,000.49	63.2059	4,000.49	67.5428	4,000.49	67.8475	4,000.49	67.1065	4,000.49	67.3247	4,000.49	68.4005	4,000.49	68.9251	4,000.49	61.8833	4,000.49	65.5718	4,000.49	67.5361
4,141.11	83.2734	4,141.11	82.2354	4,141.11	83.4169	4,141.11	82.6703	4,141.11	81.883	4,141.11	82.1193	4,141.11	81.669	4,141.11	80.1312	4,141.11	81.0387	4,141.11	79.7113	4,141.11	80.5682	4,141.11	78.301	4,141.11	80.4693	4,141.11	77.3069	4,141.11	78.8613	4,141.11	75.9152	4,141.11	76.1581	4,141.11	72.3241	4,141.11	74.6143	4,141.11	69.8994	4,141.11	71.399	4,141.11	68.097	4,141.11	68.456	4,141.11	66.1935	4,141.11	67.7188	4,141.11	61.2893	4,141.11	65.6739	4,141.11	67.2734	4,141.11	66.938	4,141.11	67.7026	4,141.11	66.0209	4,141.11	67.9196	4,141.11	68.476	4,141.11	60.0496	4,141.11	63.8385	4,141.11	65.6345
4,287.6	82.8016	4,287.6	82.6183	4,287.6	82.5159	4,287.6	81.2603	4,287.6	82.2619	4,287.6	80.6076	4,287.6	81.1233	4,287.6	80.2212	4,287.6	81.8583	4,287.6	79.7811	4,287.6	81.2111	4,287.6	78.5762	4,287.6	79.7263	4,287.6	76.9607	4,287.6	77.9485	4,287.6	74.6726	4,287.6	75.0976	4,287.6	72.1916	4,287.6	73.7355	4,287.6	69.9728	4,287.6	71.4089	4,287.6	69.1655	4,287.6	69.4286	4,287.6	66.2983	4,287.6	65.7369	4,287.6	63.3816	4,287.6	63.9207	4,287.6	66.4502	4,287.6	61.0795	4,287.6	65.4827	4,287.6	65.5343	4,287.6	67.9067	4,287.6	67.7375	4,287.6	61.4821	4,287.6	61.9324	4,287.6	62.8039
4,438.48	83.2335	4,438.48	82.8969	4,438.48	83.2742	4,438.48	81.5877	4,438.48	82.7452	4,438.48	81.4361	4,438.48	82.626	4,438.48	81.9696	4,438.48	81.956	4,438.48	80.8211	4,438.48	81.1831	4,438.48	79.0477	4,438.48	80.0162	4,438.48	76.5906	4,438.48	78.0881	4,438.48	74.8991	4,438.48	76.6027	4,438.48	72.5826	4,438.48	74.7234	4,438.48	72.276	4,438.48	71.8807	4,438.48	66.9162	4,438.48	70.6967	4,438.48	64.8449	4,438.48	67.5526	4,438.48	61.152	4,438.48	64.1461	4,438.48	64.1616	4,438.48	64.4198	4,438.48	64.9754	4,438.48	65.815	4,438.48	68.5103	4,438.48	68.5528	4,438.48	59.0172	4,438.48	65.7704	4,438.48	63.9186
4,595.21	83.5156	4,595.21	82.0062	4,595.21	83.5164	4,595.21	82.998	4,595.21	81.8762	4,595.21	81.628	4,595.21	82.134	4,595.21	81.0572	4,595.21	81.2795	4,595.21	80.8736	4,595.21	79.9094	4,595.21	78.8807	4,595.21	79.5296	4,595.21	77.3988	4,595.21	78.4957	4,595.21	75.8792	4,595.21	76.0941	4,595.21	71.432	4,595.21	73.8635	4,595.21	70.5863	4,595.21	71.7464	4,595.21	66.7385	4,595.21	69.5823	4,595.21	65.343	4,595.21	66.3744	4,595.21	63.8868	4,595.21	66.6255	4,595.21	64.8751	4,595.21	63.1585	4,595.21	65.3876	4,595.21	66.2241	4,595.21	66.8282	4,595.21	66.5644	4,595.21	61.5435	4,595.21	66.1272	4,595.21	63.3024
4,756.35	82.9957	4,756.35	82.9246	4,756.35	82.2394	4,756.35	81.191	4,756.35	82.7542	4,756.35	81.1804	4,756.35	81.1509	4,756.35	80.8113	4,756.35	82.0047	4,756.35	79.2318	4,756.35	82.0945	4,756.35	79.4308	4,756.35	80.5849	4,756.35	78.4663	4,756.35	78.5631	4,756.35	73.3006	4,756.35	77.1058	4,756.35	72.7056	4,756.35	74.7302	4,756.35	68.3391	4,756.35	71.1203	4,756.35	68.8348	4,756.35	69.9224	4,756.35	66.065	4,756.35	68.5606	4,756.35	66.738	4,756.35	66.7162	4,756.35	65.9673	4,756.35	59.5553	4,756.35	65.8639	4,756.35	67.0106	4,756.35	68.5631	4,756.35	67.7284	4,756.35	61.7572	4,756.35	63.233	4,756.35	60.5753
4,924.8	83.1659	4,924.8	82.7296	4,924.8	83.5995	4,924.8	81.4343	4,924.8	81.9656	4,924.8	81.0695	4,924.8	82.1933	4,924.8	81.8354	4,924.8	81.794	4,924.8	81.234	4,924.8	81.4046	4,924.8	79.6181	4,924.8	80.6816	4,924.8	78.2874	4,924.8	79.0793	4,924.8	75.2111	4,924.8	76.0445	4,924.8	72.4602	4,924.8	74.0706	4,924.8	72.0282	4,924.8	71.8893	4,924.8	69.674	4,924.8	69.298	4,924.8	63.2888	4,924.8	65.7822	4,924.8	65.534	4,924.8	67.2687	4,924.8	63.7494	4,924.8	63.8658	4,924.8	64.4429	4,924.8	67.7764	4,924.8	67.7413	4,924.8	68.6037	4,924.8	56.6749	4,924.8	65.7783	4,924.8	64.5554
5,097.66	82.8379	5,097.66	82.0145	5,097.66	82.9487	5,097.66	81.8332	5,097.66	81.7906	5,097.66	81.4101	5,097.66	81.6634	5,097.66	81.7987	5,097.66	81.024	5,097.66	81.6702	5,097.66	81.0528	5,097.66	80.2894	5,097.66	80.1143	5,097.66	77.4066	5,097.66	78.839	5,097.66	76.6535	5,097.66	76.7615	5,097.66	74.0164	5,097.66	75.1372	5,097.66	72.2305	5,097.66	71.9236	5,097.66	69.2356	5,097.66	68.8274	5,097.66	67.4664	5,097.66	68.2983	5,097.66	67.8799	5,097.66	65.4041	5,097.66	62.0643	5,097.66	60.7402	5,097.66	67.8035	5,097.66	67.1594	5,097.66	68.4868	5,097.66	67.6118	5,097.66	61.0386	5,097.66	66.4227	5,097.66	64.1899
5,277.83	82.7758	5,277.83	82.1555	5,277.83	81.6359	5,277.83	80.9153	5,277.83	81.9283	5,277.83	81.3642	5,277.83	80.103	5,277.83	81.3342	5,277.83	81.833	5,277.83	80.8904	5,277.83	82.2506	5,277.83	79.9614	5,277.83	80.5234	5,277.83	77.9805	5,277.83	78.8037	5,277.83	75.5151	5,277.83	78.0014	5,277.83	74.3947	5,277.83	74.2302	5,277.83	68.1326	5,277.83	71.8086	5,277.83	67.7218	5,277.83	69.9728	5,277.83	64.4584	5,277.83	65.0936	5,277.83	66.044	5,277.83	63.8278	5,277.83	62.6541	5,277.83	63.7405	5,277.83	67.0023	5,277.83	66.0165	5,277.83	68.333	5,277.83	65.9607	5,277.83	60.0785	5,277.83	66.114	5,277.83	61.7097
5,463.87	83.1954	5,463.87	82.5881	5,463.87	83.4906	5,463.87	82.514	5,463.87	81.8594	5,463.87	81.8232	5,463.87	82.2551	5,463.87	81.8766	5,463.87	81.4799	5,463.87	81.9232	5,463.87	81.1393	5,463.87	80.3944	5,463.87	81.1132	5,463.87	79.2822	5,463.87	80.0303	5,463.87	76.8683	5,463.87	76.1072	5,463.87	75.042	5,463.87	73.8287	5,463.87	71.918	5,463.87	71.2183	5,463.87	69.1366	5,463.87	68.7326	5,463.87	66.3199	5,463.87	66.4916	5,463.87	63.0958	5,463.87	63.5631	5,463.87	63.3568	5,463.87	65.0955	5,463.87	64.2693	5,463.87	65.8389	5,463.87	67.1819	5,463.87	65.161	5,463.87	57.3931	5,463.87	64.3639	5,463.87	61.9886
5,657.23	83.6236	5,657.23	83.3675	5,657.23	83.214	5,657.23	82.4656	5,657.23	82.89	5,657.23	81.579	5,657.23	81.6688	5,657.23	81.3988	5,657.23	81.983	5,657.23	80.4731	5,657.23	81.1558	5,657.23	79.225	5,657.23	80.8001	5,657.23	76.4705	5,657.23	78.2555	5,657.23	75.4132	5,657.23	76.4967	5,657.23	71.6642	5,657.23	73.4021	5,657.23	70.3583	5,657.23	71.4236	5,657.23	67.421	5,657.23	69.0791	5,657.23	65.2443	5,657.23	64.4596	5,657.23	65.1875	5,657.23	63.5817	5,657.23	62.6758	5,657.23	60.9709	5,657.23	66.157	5,657.23	64.5624	5,657.23	67.1237	5,657.23	63.6551	5,657.23	59.9933	5,657.23	65.4685	5,657.23	58.636
5,856.45	83.1536	5,856.45	82.9212	5,856.45	82.8083	5,856.45	82.261	5,856.45	82.3288	5,856.45	81.4859	5,856.45	81.1194	5,856.45	81.5373	5,856.45	80.3896	5,856.45	80.8277	5,856.45	80.2644	5,856.45	80.2374	5,856.45	79.7806	5,856.45	78.6956	5,856.45	78.6184	5,856.45	76.8164	5,856.45	76.5313	5,856.45	73.0276	5,856.45	73.0207	5,856.45	69.3178	5,856.45	70.4692	5,856.45	68.3776	5,856.45	67.6813	5,856.45	63.8756	5,856.45	65.156	5,856.45	58.1506	5,856.45	63.5776	5,856.45	60.8319	5,856.45	61.8663	5,856.45	66.1303	5,856.45	61.7801	5,856.45	65.6206	5,856.45	61.1839	5,856.45	61.779	5,856.45	64.5198	5,856.45	57.4359
6,062.99	83.1829	6,062.99	82.9374	6,062.99	83.3736	6,062.99	82.0986	6,062.99	82.3632	6,062.99	81.6251	6,062.99	82.2234	6,062.99	81.067	6,062.99	80.9357	6,062.99	80.3465	6,062.99	79.903	6,062.99	78.7132	6,062.99	79.7388	6,062.99	78.2889	6,062.99	78.7074	6,062.99	74.9638	6,062.99	75.3593	6,062.99	71.734	6,062.99	73.5304	6,062.99	68.9464	6,062.99	70.5891	6,062.99	66.7952	6,062.99	68.2071	6,062.99	64.4928	6,062.99	66.1066	6,062.99	59.299	6,062.99	61.6886	6,062.99	61.3599	6,062.99	59.7969	6,062.99	64.1779	6,062.99	63.7005	6,062.99	65.1911	6,062.99	64.8099	6,062.99	60.7301	6,062.99	64.2303	6,062.99	52.8505
6,276.86	82.3306	6,276.86	82.0173	6,276.86	81.8611	6,276.86	81.8401	6,276.86	82.1375	6,276.86	80.8796	6,276.86	81.0703	6,276.86	81.1107	6,276.86	81.0346	6,276.86	79.8105	6,276.86	80.4473	6,276.86	78.3396	6,276.86	78.5339	6,276.86	77.0868	6,276.86	76.5935	6,276.86	74.4428	6,276.86	75.1358	6,276.86	72.2182	6,276.86	72.9366	6,276.86	69.7822	6,276.86	69.3892	6,276.86	67.9669	6,276.86	66.7769	6,276.86	63.5159	6,276.86	65.4776	6,276.86	63.1103	6,276.86	62.6819	6,276.86	58.1706	6,276.86	58.0789	6,276.86	63.9543	6,276.86	62.1297	6,276.86	62.6194	6,276.86	62.4796	6,276.86	60.8838	6,276.86	65.0844	6,276.86	57.2452
6,498.05	81.6291	6,498.05	81.7219	6,498.05	81.8837	6,498.05	81.1982	6,498.05	81.8072	6,498.05	80.3114	6,498.05	80.5427	6,498.05	79.8838	6,498.05	80.326	6,498.05	79.5053	6,498.05	79.6422	6,498.05	78.4302	6,498.05	79.0817	6,498.05	75.6366	6,498.05	78.1044	6,498.05	74.0741	6,498.05	74.6507	6,498.05	71.2047	6,498.05	72.7631	6,498.05	68.3429	6,498.05	69.5745	6,498.05	65.107	6,498.05	67.4377	6,498.05	62.8115	6,498.05	62.8875	6,498.05	63.2039	6,498.05	62.3725	6,498.05	57.4258	6,498.05	61.0856	6,498.05	63.9586	6,498.05	60.6819	6,498.05	62.8447	6,498.05	64.017	6,498.05	58.9313	6,498.05	64.2257	6,498.05	58.089
6,726.56	81.762	6,726.56	81.6961	6,726.56	82.229	6,726.56	81.647	6,726.56	81.8474	6,726.56	80.4682	6,726.56	81.0833	6,726.56	79.8516	6,726.56	80.5402	6,726.56	79.6922	6,726.56	79.6144	6,726.56	78.163	6,726.56	78.9933	6,726.56	77.3146	6,726.56	77.4435	6,726.56	74.7042	6,726.56	75.2932	6,726.56	72.175	6,726.56	72.6118	6,726.56	68.9303	6,726.56	69.9105	6,726.56	66.4859	6,726.56	66.7052	6,726.56	62.1827	6,726.56	64.2838	6,726.56	59.1607	6,726.56	63.1664	6,726.56	60.9982	6,726.56	58.8943	6,726.56	63.9196	6,726.56	61.1633	6,726.56	64.1904	6,726.56	63.2072	6,726.56	58.0796	6,726.56	64.6995	6,726.56	58.9706
6,963.87	81.6975	6,963.87	81.4768	6,963.87	81.6204	6,963.87	81.2243	6,963.87	81.8385	6,963.87	80.2049	6,963.87	80.9695	6,963.87	79.4691	6,963.87	80.3582	6,963.87	78.6707	6,963.87	80.2861	6,963.87	78.0202	6,963.87	79.2844	6,963.87	76.9826	6,963.87	77.7867	6,963.87	73.4719	6,963.87	75.2023	6,963.87	70.901	6,963.87	72.6683	6,963.87	66.8828	6,963.87	69.5361	6,963.87	65.4803	6,963.87	67.9342	6,963.87	61.8459	6,963.87	63.0911	6,963.87	61.1119	6,963.87	61.0716	6,963.87	58.7729	6,963.87	60.2546	6,963.87	62.3446	6,963.87	59.5846	6,963.87	62.7057	6,963.87	63.859	6,963.87	60.3328	6,963.87	63.5716	6,963.87	58.5005
7,209.96	82.0053	7,209.96	82.2988	7,209.96	82.3415	7,209.96	82.2606	7,209.96	82.4814	7,209.96	81.5014	7,209.96	81.9749	7,209.96	81.0544	7,209.96	80.9151	7,209.96	80.516	7,209.96	80.2585	7,209.96	78.9451	7,209.96	79.6756	7,209.96	76.6813	7,209.96	78.1068	7,209.96	74.9113	7,209.96	75.8445	7,209.96	71.8596	7,209.96	73.051	7,209.96	68.7819	7,209.96	70.5576	7,209.96	65.0689	7,209.96	67.2551	7,209.96	61.8898	7,209.96	64.2561	7,209.96	61.1354	7,209.96	60.9684	7,209.96	58.9871	7,209.96	59.3758	7,209.96	61.8012	7,209.96	59.6384	7,209.96	62.694	7,209.96	64.3075	7,209.96	61.6689	7,209.96	64.8385	7,209.96	58.1646
7,464.84	82.1549	7,464.84	82.3328	7,464.84	82.1067	7,464.84	82.3215	7,464.84	82.7769	7,464.84	81.5515	7,464.84	82.4582	7,464.84	80.7208	7,464.84	81.9268	7,464.84	79.5583	7,464.84	80.6991	7,464.84	78.2475	7,464.84	80.0077	7,464.84	76.2323	7,464.84	77.4876	7,464.84	73.9784	7,464.84	75.0623	7,464.84	71.1731	7,464.84	72.4969	7,464.84	68.0926	7,464.84	70.3203	7,464.84	64.8799	7,464.84	66.5914	7,464.84	62.2286	7,464.84	65.0343	7,464.84	58.3814	7,464.84	61.3584	7,464.84	58.9893	7,464.84	60.0982	7,464.84	59.191	7,464.84	58.7681	7,464.84	61.6821	7,464.84	62.6369	7,464.84	61.5946	7,464.84	64.4187	7,464.84	54.5878
7,727.05	82.3222	7,727.05	82.5257	7,727.05	82.3413	7,727.05	82.7707	7,727.05	82.8038	7,727.05	82.3263	7,727.05	82.2053	7,727.05	81.7306	7,727.05	81.8929	7,727.05	80.4567	7,727.05	80.7434	7,727.05	79.2659	7,727.05	79.403	7,727.05	77.3452	7,727.05	77.6635	7,727.05	75.1226	7,727.05	75.2899	7,727.05	71.7963	7,727.05	72.4043	7,727.05	69.3839	7,727.05	69.8115	7,727.05	66.8363	7,727.05	66.6595	7,727.05	62.5359	7,727.05	63.6291	7,727.05	61.755	7,727.05	59.3341	7,727.05	57.7719	7,727.05	59.2753	7,727.05	58.0931	7,727.05	58.7771	7,727.05	60.5946	7,727.05	62.4144	7,727.05	60.9431	7,727.05	63.1992	7,727.05	55.5461
7,999.51	83.4762	7,999.51	83.1768	7,999.51	83.1296	7,999.51	83.4977	7,999.51	83.4106	7,999.51	82.7942	7,999.51	82.7699	7,999.51	81.9126	7,999.51	81.9031	7,999.51	80.686	7,999.51	80.3864	7,999.51	79.0904	7,999.51	79.2387	7,999.51	77.401	7,999.51	77.2387	7,999.51	75.2274	7,999.51	75.3629	7,999.51	72.3361	7,999.51	72.2949	7,999.51	69.0928	7,999.51	69.5607	7,999.51	66.8597	7,999.51	66.3769	7,999.51	62.098	7,999.51	64.3669	7,999.51	60.1586	7,999.51	60.1624	7,999.51	57.1081	7,999.51	58.4829	7,999.51	56.6498	7,999.51	54.8057	7,999.51	60.1664	7,999.51	59.4975	7,999.51	58.4444	7,999.51	61.5659	7,999.51	55.6263
8,282.23	82.5111	8,282.23	82.3255	8,282.23	82.4741	8,282.23	82.2901	8,282.23	82.7596	8,282.23	81.2988	8,282.23	81.9536	8,282.23	80.2355	8,282.23	80.8682	8,282.23	78.852	8,282.23	79.5536	8,282.23	77.5206	8,282.23	78.2143	8,282.23	75.6212	8,282.23	77.2863	8,282.23	73.3392	8,282.23	74.0387	8,282.23	70.2154	8,282.23	71.9362	8,282.23	66.5139	8,282.23	68.4734	8,282.23	64.9541	8,282.23	66.2852	8,282.23	62.0613	8,282.23	61.3403	8,282.23	57.1879	8,282.23	57.5712	8,282.23	57.0083	8,282.23	54.97	8,282.23	58.0657	8,282.23	57.8564	8,282.23	59.3799	8,282.23	60.6392	8,282.23	52.4953	8,282.23	58.9959	8,282.23	55.3473
8,573.73	81.2322	8,573.73	80.7261	8,573.73	81.2924	8,573.73	80.9515	8,573.73	80.9974	8,573.73	80.0757	8,573.73	81.0983	8,573.73	78.9043	8,573.73	79.9918	8,573.73	76.7234	8,573.73	78.0171	8,573.73	74.9728	8,573.73	76.9805	8,573.73	73.2191	8,573.73	75.1226	8,573.73	70.6331	8,573.73	72.8676	8,573.73	67.358	8,573.73	69.7555	8,573.73	65.2834	8,573.73	66.7233	8,573.73	63.3608	8,573.73	64.4664	8,573.73	58.3052	8,573.73	60.9227	8,573.73	51.6674	8,573.73	54.9897	8,573.73	50.4646	8,573.73	54.7939	8,573.73	57.654	8,573.73	54.667	8,573.73	59.2993	8,573.73	59.4361	8,573.73	50.3563	8,573.73	56.769	8,573.73	54.0704
8,876.95	80.7512	8,876.95	80.4798	8,876.95	80.5099	8,876.95	81.1911	8,876.95	80.9815	8,876.95	80.1846	8,876.95	80.4324	8,876.95	78.5905	8,876.95	78.709	8,876.95	77.0503	8,876.95	76.8869	8,876.95	75.4547	8,876.95	75.3997	8,876.95	73.0214	8,876.95	72.5764	8,876.95	71.2904	8,876.95	70.488	8,876.95	66.8225	8,876.95	67.2636	8,876.95	64.4738	8,876.95	65.3655	8,876.95	61.7139	8,876.95	61.2289	8,876.95	58.6147	8,876.95	58.1383	8,876.95	52.1863	8,876.95	56.9205	8,876.95	49.2659	8,876.95	49.9735	8,876.95	56.2159	8,876.95	57.0823	8,876.95	58.5802	8,876.95	58.9388	8,876.95	52.6821	8,876.95	56.9138	8,876.95	55.8671
9,188.96	81.3384	9,188.96	80.9301	9,188.96	81.3027	9,188.96	81.126	9,188.96	81.1803	9,188.96	80.2543	9,188.96	80.6167	9,188.96	78.7215	9,188.96	79.558	9,188.96	76.4307	9,188.96	77.5208	9,188.96	75.1141	9,188.96	76.2785	9,188.96	73.4125	9,188.96	74.3438	9,188.96	70.0549	9,188.96	71.3028	9,188.96	67.8606	9,188.96	68.6371	9,188.96	63.081	9,188.96	65.7843	9,188.96	60.6001	9,188.96	61.8924	9,188.96	56.1093	9,188.96	59.2235	9,188.96	52.5999	9,188.96	58.4128	9,188.96	50.1343	9,188.96	52.8646	9,188.96	54.5767	9,188.96	54.3729	9,188.96	58.4521	9,188.96	56.3538	9,188.96	55.6886	9,188.96	54.6554	9,188.96	53.1307
9,514.16	81.4464	9,514.16	81.4018	9,514.16	81.1533	9,514.16	81.106	9,514.16	81.7854	9,514.16	80.1945	9,514.16	80.8482	9,514.16	78.9384	9,514.16	79.6415	9,514.16	77.1019	9,514.16	77.5989	9,514.16	75.1823	9,514.16	75.8618	9,514.16	73.1038	9,514.16	73.827	9,514.16	69.8203	9,514.16	71.2461	9,514.16	67.086	9,514.16	68.2687	9,514.16	62.76	9,514.16	63.773	9,514.16	61.3465	9,514.16	61.7038	9,514.16	56.9091	9,514.16	59.0986	9,514.16	50.1593	9,514.16	57.1468	9,514.16	45.1132	9,514.16	53.915	9,514.16	54.7806	9,514.16	52.311	9,514.16	59.5868	9,514.16	57.695	9,514.16	52.4608	9,514.16	51.9961	9,514.16	53.3781
9,849.61	81.0653	9,849.61	80.8743	9,849.61	80.9442	9,849.61	81.028	9,849.61	80.9303	9,849.61	80.2782	9,849.61	80.4677	9,849.61	78.7925	9,849.61	79.3015	9,849.61	77.062	9,849.61	77.1748	9,849.61	74.8231	9,849.61	75.36	9,849.61	72.8204	9,849.61	73.0141	9,849.61	70.0433	9,849.61	69.976	9,849.61	66.1573	9,849.61	66.1343	9,849.61	63.4611	9,849.61	63.272	9,849.61	60.7064	9,849.61	60.737	9,849.61	53.0654	9,849.61	56.9009	9,849.61	54.6517	9,849.61	56.4855	9,849.61	45.7529	9,849.61	52.9095	9,849.61	53.4618	9,849.61	51.541	9,849.61	58.2648	9,849.61	57.5698	9,849.61	50.1584	9,849.61	53.2388	9,849.61	51.774
10,196.8	81.1095	10,196.8	80.8875	10,196.8	80.842	10,196.8	81.0952	10,196.8	80.6301	10,196.8	80.1728	10,196.8	80.1509	10,196.8	79.1387	10,196.8	79.1266	10,196.8	76.4836	10,196.8	76.9255	10,196.8	74.4835	10,196.8	74.8203	10,196.8	71.2808	10,196.8	71.7652	10,196.8	69.5284	10,196.8	68.7032	10,196.8	65.5932	10,196.8	65.5824	10,196.8	62.5195	10,196.8	61.9718	10,196.8	59.8308	10,196.8	58.5324	10,196.8	56.5963	10,196.8	56.5451	10,196.8	54.2284	10,196.8	55.823	10,196.8	48.1469	10,196.8	51.2736	10,196.8	50.9875	10,196.8	50.8863	10,196.8	57.1032	10,196.8	57.0166	10,196.8	50.1101	10,196.8	51.0396	10,196.8	53.3464
10,555.7	81.023	10,555.7	80.7346	10,555.7	81.0933	10,555.7	80.3958	10,555.7	80.4922	10,555.7	79.7533	10,555.7	79.9047	10,555.7	78.2995	10,555.7	78.7076	10,555.7	76.2451	10,555.7	76.9546	10,555.7	73.4072	10,555.7	74.6025	10,555.7	71.476	10,555.7	71.45	10,555.7	67.4399	10,555.7	69.0902	10,555.7	64.0112	10,555.7	65.6333	10,555.7	60.9249	10,555.7	61.676	10,555.7	57.8919	10,555.7	59.6999	10,555.7	54.1194	10,555.7	56.3893	10,555.7	54.2831	10,555.7	54.8416	10,555.7	47.4293	10,555.7	50.3007	10,555.7	49.9631	10,555.7	43.3993	10,555.7	56.1455	10,555.7	54.4735	10,555.7	49.6171	10,555.7	49.8631	10,555.7	50.4847
10,927.7	81.3509	10,927.7	81.0204	10,927.7	81.3379	10,927.7	80.3013	10,927.7	80.9457	10,927.7	79.5095	10,927.7	80.1927	10,927.7	78.3118	10,927.7	78.8087	10,927.7	75.8953	10,927.7	76.8663	10,927.7	73.4323	10,927.7	74.7306	10,927.7	70.6472	10,927.7	71.8427	10,927.7	67.0053	10,927.7	68.5032	10,927.7	64.0842	10,927.7	65.1734	10,927.7	60.5119	10,927.7	61.2697	10,927.7	56.7078	10,927.7	59.4565	10,927.7	54.7329	10,927.7	57.2441	10,927.7	54.7711	10,927.7	53.796	10,927.7	42.8978	10,927.7	49.9506	10,927.7	46.541	10,927.7	40.3731	10,927.7	53.9919	10,927.7	53.7935	10,927.7	48.5652	10,927.7	46.1044	10,927.7	49.6659
11,313	81.5166	11,313	81.1697	11,313	81.4096	11,313	80.4023	11,313	80.808	11,313	79.7614	11,313	79.616	11,313	78.1457	11,313	78.3289	11,313	75.4856	11,313	76.2451	11,313	73.5313	11,313	73.3785	11,313	69.761	11,313	69.6917	11,313	67.5657	11,313	65.9445	11,313	62.5678	11,313	62.2027	11,313	60.696	11,313	59.5585	11,313	58.2807	11,313	56.8844	11,313	52.6482	11,313	52.5359	11,313	53.8106	11,313	52.2577	11,313	44.6196	11,313	49.6285	11,313	46.3967	11,313	31.1203	11,313	52.8248	11,313	52.7878	11,313	47.8445	11,313	47.254	11,313	47.2285
11,712.9	81.8787	11,712.9	81.1516	11,712.9	81.6107	11,712.9	80.6665	11,712.9	80.5361	11,712.9	79.331	11,712.9	79.1632	11,712.9	78.0552	11,712.9	77.8342	11,712.9	75.6284	11,712.9	75.555	11,712.9	72.8998	11,712.9	72.7912	11,712.9	69.1304	11,712.9	68.4022	11,712.9	66.7781	11,712.9	64.6739	11,712.9	62.9445	11,712.9	61.021	11,712.9	59.4495	11,712.9	59.1272	11,712.9	57.8632	11,712.9	54.2314	11,712.9	54.8647	11,712.9	52.067	11,712.9	52.2307	11,712.9	49.1181	11,712.9	47.0271	11,712.9	48.7862	11,712.9	44.9567	11,712.9	37.319	11,712.9	49.3012	11,712.9	49.248	11,712.9	48.5314	11,712.9	42.4711	11,712.9	45.5628
12,126	82.0067	12,126	81.3668	12,126	81.6727	12,126	80.6191	12,126	80.3449	12,126	79.0763	12,126	78.9173	12,126	77.8958	12,126	77.2145	12,126	75.5704	12,126	74.7664	12,126	72.4543	12,126	71.6765	12,126	69.0928	12,126	67.6559	12,126	65.8267	12,126	64.7551	12,126	62.0178	12,126	61.4321	12,126	60.2904	12,126	58.1426	12,126	55.9184	12,126	54.7382	12,126	53.2082	12,126	51.4296	12,126	53.379	12,126	44.0787	12,126	48.6366	12,126	49.4603	12,126	44.2571	12,126	31.0603	12,126	47.1293	12,126	46.5774	12,126	51.2503	12,126	30.7214	12,126	43.4167
12,553.7	82.1783	12,553.7	81.6934	12,553.7	81.7783	12,553.7	80.4951	12,553.7	80.6313	12,553.7	79.2426	12,553.7	78.9788	12,553.7	77.5336	12,553.7	76.6382	12,553.7	74.4403	12,553.7	73.6527	12,553.7	71.4288	12,553.7	70.6233	12,553.7	67.1766	12,553.7	67.1434	12,553.7	65.1869	12,553.7	63.3288	12,553.7	60.8789	12,553.7	61.1954	12,553.7	58.7662	12,553.7	58.8764	12,553.7	55.2937	12,553.7	54.6874	12,553.7	53.0901	12,553.7	52.6333	12,553.7	54.0236	12,553.7	46.9777	12,553.7	47.0411	12,553.7	47.349	12,553.7	41.914	12,553.7	37.7863	12,553.7	48.5699	12,553.7	46.2702	12,553.7	47.462	12,553.7	37.3986	12,553.7	38.512
12,996.1	82.6308	12,996.1	81.7441	12,996.1	82.1737	12,996.1	80.8785	12,996.1	80.8963	12,996.1	78.9126	12,996.1	79.0835	12,996.1	76.8619	12,996.1	76.9975	12,996.1	73.2969	12,996.1	73.1519	12,996.1	69.7129	12,996.1	70.514	12,996.1	65.9288	12,996.1	67.754	12,996.1	62.7918	12,996.1	64.6734	12,996.1	60.4865	12,996.1	61.7759	12,996.1	55.6228	12,996.1	59.292	12,996.1	55.0906	12,996.1	54.1647	12,996.1	53.0942	12,996.1	52.7061	12,996.1	50.6031	12,996.1	46.5312	12,996.1	47.9259	12,996.1	46.7675	12,996.1	38.2828	12,996.1	43.3681	12,996.1	45.6015	12,996.1	41.2991	12,996.1	48.5019	12,996.1	34.9497	12,996.1	41.5365
13,454.6	82.9588	13,454.6	81.9806	13,454.6	82.6115	13,454.6	80.9599	13,454.6	81.3636	13,454.6	78.8427	13,454.6	79.3706	13,454.6	76.5971	13,454.6	77.2254	13,454.6	72.7261	13,454.6	72.9829	13,454.6	69.8259	13,454.6	70.9425	13,454.6	67.0858	13,454.6	68.7191	13,454.6	63.4359	13,454.6	66.0914	13,454.6	61.2255	13,454.6	62.575	13,454.6	56.8692	13,454.6	58.7712	13,454.6	56.2446	13,454.6	55.1746	13,454.6	53.1959	13,454.6	53.2379	13,454.6	51.0322	13,454.6	48.5686	13,454.6	46.4301	13,454.6	45.4894	13,454.6	39.8933	13,454.6	45.2498	13,454.6	45.3796	13,454.6	42.7595	13,454.6	50.8125	13,454.6	30.5874	13,454.6	36.4258
13,929.2	83.3801	13,929.2	82.4079	13,929.2	82.989	13,929.2	81.1471	13,929.2	81.7229	13,929.2	79.0823	13,929.2	79.9903	13,929.2	76.6985	13,929.2	77.3079	13,929.2	72.5155	13,929.2	73.377	13,929.2	69.981	13,929.2	70.9565	13,929.2	66.9773	13,929.2	68.4753	13,929.2	63.8401	13,929.2	65.3622	13,929.2	59.9129	13,929.2	62.848	13,929.2	56.1631	13,929.2	58.6189	13,929.2	55.4993	13,929.2	56.0837	13,929.2	52.4183	13,929.2	53.1563	13,929.2	48.1105	13,929.2	49.5978	13,929.2	44.7161	13,929.2	45.9898	13,929.2	41.4617	13,929.2	45.3145	13,929.2	44.0624	13,929.2	40.3699	13,929.2	46.7385	13,929.2	27.1079	13,929.2	34.2429
14,419.9	83.5337	14,419.9	82.5807	14,419.9	83.1113	14,419.9	81.3418	14,419.9	81.9064	14,419.9	79.2441	14,419.9	79.9794	14,419.9	76.7085	14,419.9	77.5108	14,419.9	72.694	14,419.9	73.6648	14,419.9	69.5741	14,419.9	71.0032	14,419.9	66.3991	14,419.9	68.332	14,419.9	63.2616	14,419.9	65.9796	14,419.9	59.9807	14,419.9	63.2377	14,419.9	56.7176	14,419.9	59.351	14,419.9	55.2925	14,419.9	56.6167	14,419.9	52.0565	14,419.9	53.586	14,419.9	49.1434	14,419.9	48.2231	14,419.9	44.7215	14,419.9	46.0001	14,419.9	41.5764	14,419.9	44.8496	14,419.9	39.8177	14,419.9	40.8622	14,419.9	47.5136	14,419.9	23.3986	14,419.9	32.3377
14,928.2	83.6018	14,928.2	82.7457	14,928.2	83.1824	14,928.2	81.5162	14,928.2	82.0454	14,928.2	79.2448	14,928.2	79.9784	14,928.2	76.4767	14,928.2	77.4933	14,928.2	72.2546	14,928.2	73.667	14,928.2	68.5283	14,928.2	70.4669	14,928.2	65.7805	14,928.2	68.119	14,928.2	62.8183	14,928.2	65.3884	14,928.2	60.0616	14,928.2	63.2263	14,928.2	56.465	14,928.2	59.1315	14,928.2	54.759	14,928.2	56.6333	14,928.2	50.3632	14,928.2	52.9938	14,928.2	47.115	14,928.2	47.2124	14,928.2	44.676	14,928.2	46.6956	14,928.2	37.8496	14,928.2	45.8123	14,928.2	20.6405	14,928.2	42.2375	14,928.2	43.8894	14,928.2	36.6819	14,928.2	36.104
15,455.6	83.6331	15,455.6	82.8208	15,455.6	83.3134	15,455.6	81.5164	15,455.6	82.1593	15,455.6	79.0804	15,455.6	79.9593	15,455.6	76.1133	15,455.6	77.3928	15,455.6	71.4647	15,455.6	73.5079	15,455.6	67.0785	15,455.6	69.5111	15,455.6	64.2616	15,455.6	66.886	15,455.6	62.5047	15,455.6	65.4206	15,455.6	59.4944	15,455.6	62.7767	15,455.6	56.766	15,455.6	59.061	15,455.6	55.0613	15,455.6	56.1024	15,455.6	49.9298	15,455.6	52.1342	15,455.6	46.8939	15,455.6	45.3334	15,455.6	42.967	15,455.6	45.3606	15,455.6	37.2025	15,455.6	43.3541	15,455.6	25.9075	15,455.6	44.1412	15,455.6	41.5298	15,455.6	40.2373	15,455.6	36.0722
16,000.5	83.812	16,000.5	83.0059	16,000.5	83.4761	16,000.5	81.5164	16,000.5	82.2385	16,000.5	78.7958	16,000.5	79.8624	16,000.5	75.5205	16,000.5	76.9064	16,000.5	70.0325	16,000.5	72.3344	16,000.5	65.2513	16,000.5	68.0277	16,000.5	64.2493	16,000.5	66.4658	16,000.5	63.2702	16,000.5	65.204	16,000.5	59.8674	16,000.5	62.7393	16,000.5	57.2663	16,000.5	59.5014	16,000.5	54.7546	16,000.5	55.6692	16,000.5	49.1822	16,000.5	51.3115	16,000.5	45.4064	16,000.5	46.8645	16,000.5	41.6849	16,000.5	44.4986	16,000.5	32.1584	16,000.5	42.0407	16,000.5	38.6964	16,000.5	45.5751	16,000.5	36.2631	16,000.5	43.6834	16,000.5	38.9346
16,564.5	83.6662	16,564.5	82.828	16,564.5	83.3578	16,564.5	81.0386	16,564.5	82.1486	16,564.5	77.7384	16,564.5	79.2985	16,564.5	74.1454	16,564.5	76.2093	16,564.5	67.502	16,564.5	70.6173	16,564.5	63.2793	16,564.5	66.5235	16,564.5	65.3299	16,564.5	66.6934	16,564.5	63.3313	16,564.5	65.977	16,564.5	60.7771	16,564.5	63.1214	16,564.5	56.6769	16,564.5	59.1409	16,564.5	54.9795	16,564.5	55.5202	16,564.5	47.9884	16,564.5	50.4076	16,564.5	44.9498	16,564.5	47.7443	16,564.5	38.4192	16,564.5	42.7086	16,564.5	38.1999	16,564.5	40.3938	16,564.5	37.6027	16,564.5	47.4602	16,564.5	38.049	16,564.5	41.3433	16,564.5	41.2069
17,148.9	83.3754	17,148.9	82.4394	17,148.9	82.9587	17,148.9	80.2845	17,148.9	81.417	17,148.9	76.5543	17,148.9	78.4339	17,148.9	72.3489	17,148.9	74.7131	17,148.9	64.2157	17,148.9	68.3461	17,148.9	64.148	17,148.9	64.379	17,148.9	65.5255	17,148.9	65.8715	17,148.9	63.9887	17,148.9	65.271	17,148.9	59.994	17,148.9	62.3747	17,148.9	56.8095	17,148.9	58.2547	17,148.9	54.2814	17,148.9	54.7589	17,148.9	48.507	17,148.9	50.2214	17,148.9	47.108	17,148.9	49.3829	17,148.9	37.4027	17,148.9	42.252	17,148.9	37.7799	17,148.9	39.7211	17,148.9	40.469	17,148.9	44.2799	17,148.9	44.8692	17,148.9	41.8216	17,148.9	37.5517
17,752.4	82.6327	17,752.4	81.5629	17,752.4	82.2373	17,752.4	79.3305	17,752.4	80.4072	17,752.4	75.9559	17,752.4	77.3822	17,752.4	71.0348	17,752.4	72.9537	17,752.4	62.4726	17,752.4	65.9593	17,752.4	64.2731	17,752.4	63.721	17,752.4	64.6145	17,752.4	64.4362	17,752.4	62.0282	17,752.4	63.8394	17,752.4	58.5857	17,752.4	60.15	17,752.4	55.3517	17,752.4	56.1012	17,752.4	52.6832	17,752.4	52.6507	17,752.4	46.4095	17,752.4	48.0795	17,752.4	45.452	17,752.4	47.803	17,752.4	35.5388	17,752.4	40.3317	17,752.4	38.8501	17,752.4	37.9239	17,752.4	34.8288	17,752.4	42.3286	17,752.4	40.0123	17,752.4	33.7995	17,752.4	39.0735
18,379.4	81.7996	18,379.4	80.5972	18,379.4	81.2849	18,379.4	78.414	18,379.4	79.311	18,379.4	74.7077	18,379.4	76.0494	18,379.4	68.6779	18,379.4	70.9038	18,379.4	61.3755	18,379.4	63.0587	18,379.4	62.6274	18,379.4	62.1569	18,379.4	61.7931	18,379.4	62.6398	18,379.4	60.0955	18,379.4	61.5295	18,379.4	56.3271	18,379.4	58.1793	18,379.4	53.0364	18,379.4	54.5826	18,379.4	50.2201	18,379.4	50.8532	18,379.4	44.703	18,379.4	46.0552	18,379.4	43.581	18,379.4	47.5888	18,379.4	35.447	18,379.4	36.1576	18,379.4	37.1002	18,379.4	34.1101	18,379.4	36.5583	18,379.4	36.7014	18,379.4	40.2159	18,379.4	37.164	18,379.4	27.7437
19,026.9	80.9488	19,026.9	79.6496	19,026.9	80.3145	19,026.9	77.3856	19,026.9	78.1992	19,026.9	73.5274	19,026.9	74.8052	19,026.9	66.3301	19,026.9	68.4071	19,026.9	59.336	19,026.9	60.5661	19,026.9	61.5135	19,026.9	61.6938	19,026.9	61.5036	19,026.9	62.2472	19,026.9	59.7774	19,026.9	61.4854	19,026.9	56.6144	19,026.9	57.9546	19,026.9	53.0613	19,026.9	54.2122	19,026.9	50.1562	19,026.9	50.4673	19,026.9	43.7731	19,026.9	45.7407	19,026.9	41.2054	19,026.9	46.6109	19,026.9	34.3884	19,026.9	37.1036	19,026.9	37.0796	19,026.9	35.2919	19,026.9	35.2563	19,026.9	34.082	19,026.9	35.7806	19,026.9	30.5428	19,026.9	22.3801
19,697.8	79.9057	19,697.8	78.4118	19,697.8	79.2038	19,697.8	75.8949	19,697.8	76.8813	19,697.8	71.3098	19,697.8	73.1774	19,697.8	62.6536	19,697.8	65.9893	19,697.8	58.4942	19,697.8	59.9169	19,697.8	61.2316	19,697.8	61.6405	19,697.8	62.1347	19,697.8	62.2101	19,697.8	60.0787	19,697.8	61.8041	19,697.8	56.7617	19,697.8	58.0479	19,697.8	52.6244	19,697.8	54.1112	19,697.8	50.114	19,697.8	50.2005	19,697.8	43.1298	19,697.8	45.2486	19,697.8	41.307	19,697.8	47.4632	19,697.8	34.9183	19,697.8	34.0399	19,697.8	37.581	19,697.8	33.5052	19,697.8	34.1522	19,697.8	31.9752	19,697.8	36.8527	19,697.8	14.3418	19,697.8	13.6553
19,999.5	79.5434	19,999.5	77.6762	19,999.5	78.475	19,999.5	75.3333	19,999.5	76.1448	19,999.5	70.2449	19,999.5	72.3387	19,999.5	61.7285	19,999.5	64.5812	19,999.5	58.9171	19,999.5	59.9338	19,999.5	61.5287	19,999.5	61.4908	19,999.5	62.0619	19,999.5	62.456	19,999.5	60.5101	19,999.5	62.1876	19,999.5	56.1522	19,999.5	58.3805	19,999.5	51.4759	19,999.5	55.8023	19,999.5	49.6174	19,999.5	51.5151	19,999.5	44.7037	19,999.5	41.3221	19,999.5	46.2031	19,999.5	50.8104	19,999.5	41.3936	19,999.5	37.6523	19,999.5	48.9869	19,999.5	42.7658	19,999.5	38.5047	19,999.5	40.119	19,999.5	35.8986	19,999.5	42.4943	19,999.5	35.332
