"SPL Vertical"
"On-Axis"		"10°"		"-10°"		"20°"		"-20°"		"30°"		"-30°"		"40°"		"-40°"		"50°"		"-50°"		"60°"		"-60°"		"70°"		"-70°"		"80°"		"-80°"		"90°"		"-90°"		"100°"		"-100°"		"110°"		"-110°"		"120°"		"-120°"		"130°"		"-130°"		"140°"		"-140°"		"150°"		"-150°"		"160°"		"-160°"		"170°"		"-170°"		"180°"
"Frequency / Hz"	"Sound Pressure Level / dB (re 20 µPa/V)  [2.83  V @ 1. m]"	"Frequency / Hz"	"Sound Pressure Level / dB (re 20 µPa/V)  [2.83  V @ 1. m]"	"Frequency / Hz"	"Sound Pressure Level / dB (re 20 µPa/V)  [2.83  V @ 1. m]"	"Frequency / Hz"	"Sound Pressure Level / dB (re 20 µPa/V)  [2.83  V @ 1. m]"	"Frequency / Hz"	"Sound Pressure Level / dB (re 20 µPa/V)  [2.83  V @ 1. m]"	"Frequency / Hz"	"Sound Pressure Level / dB (re 20 µPa/V)  [2.83  V @ 1. m]"	"Frequency / Hz"	"Sound Pressure Level / dB (re 20 µPa/V)  [2.83  V @ 1. m]"	"Frequency / Hz"	"Sound Pressure Level / dB (re 20 µPa/V)  [2.83  V @ 1. m]"	"Frequency / Hz"	"Sound Pressure Level / dB (re 20 µPa/V)  [2.83  V @ 1. m]"	"Frequency / Hz"	"Sound Pressure Level / dB (re 20 µPa/V)  [2.83  V @ 1. m]"	"Frequency / Hz"	"Sound Pressure Level / dB (re 20 µPa/V)  [2.83  V @ 1. m]"	"Frequency / Hz"	"Sound Pressure Level / dB (re 20 µPa/V)  [2.83  V @ 1. m]"	"Frequency / Hz"	"Sound Pressure Level / dB (re 20 µPa/V)  [2.83  V @ 1. m]"	"Frequency / Hz"	"Sound Pressure Level / dB (re 20 µPa/V)  [2.83  V @ 1. m]"	"Frequency / Hz"	"Sound Pressure Level / dB (re 20 µPa/V)  [2.83  V @ 1. m]"	"Frequency / Hz"	"Sound Pressure Level / dB (re 20 µPa/V)  [2.83  V @ 1. m]"	"Frequency / Hz"	"Sound Pressure Level / dB (re 20 µPa/V)  [2.83  V @ 1. m]"	"Frequency / Hz"	"Sound Pressure Level / dB (re 20 µPa/V)  [2.83  V @ 1. m]"	"Frequency / Hz"	"Sound Pressure Level / dB (re 20 µPa/V)  [2.83  V @ 1. m]"	"Frequency / Hz"	"Sound Pressure Level / dB (re 20 µPa/V)  [2.83  V @ 1. m]"	"Frequency / Hz"	"Sound Pressure Level / dB (re 20 µPa/V)  [2.83  V @ 1. m]"	"Frequency / Hz"	"Sound Pressure Level / dB (re 20 µPa/V)  [2.83  V @ 1. m]"	"Frequency / Hz"	"Sound Pressure Level / dB (re 20 µPa/V)  [2.83  V @ 1. m]"	"Frequency / Hz"	"Sound Pressure Level / dB (re 20 µPa/V)  [2.83  V @ 1. m]"	"Frequency / Hz"	"Sound Pressure Level / dB (re 20 µPa/V)  [2.83  V @ 1. m]"	"Frequency / Hz"	"Sound Pressure Level / dB (re 20 µPa/V)  [2.83  V @ 1. m]"	"Frequency / Hz"	"Sound Pressure Level / dB (re 20 µPa/V)  [2.83  V @ 1. m]"	"Frequency / Hz"	"Sound Pressure Level / dB (re 20 µPa/V)  [2.83  V @ 1. m]"	"Frequency / Hz"	"Sound Pressure Level / dB (re 20 µPa/V)  [2.83  V @ 1. m]"	"Frequency / Hz"	"Sound Pressure Level / dB (re 20 µPa/V)  [2.83  V @ 1. m]"	"Frequency / Hz"	"Sound Pressure Level / dB (re 20 µPa/V)  [2.83  V @ 1. m]"	"Frequency / Hz"	"Sound Pressure Level / dB (re 20 µPa/V)  [2.83  V @ 1. m]"	"Frequency / Hz"	"Sound Pressure Level / dB (re 20 µPa/V)  [2.83  V @ 1. m]"	"Frequency / Hz"	"Sound Pressure Level / dB (re 20 µPa/V)  [2.83  V @ 1. m]"	"Frequency / Hz"	"Sound Pressure Level / dB (re 20 µPa/V)  [2.83  V @ 1. m]"	"Frequency / Hz"	"Sound Pressure Level / dB (re 20 µPa/V)  [2.83  V @ 1. m]"
20.5078	48.7718	20.5078	48.8875	20.5078	48.6237	20.5078	48.9454	20.5078	48.4913	20.5078	48.9349	20.5078	48.4518	20.5078	48.8565	20.5078	48.6066	20.5078	48.7216	20.5078	49.0431	20.5078	48.552	20.5078	49.7771	20.5078	48.3815	20.5078	50.7303	20.5078	48.2541	20.5078	51.773	20.5078	48.2204	20.5078	52.7821	20.5078	48.328	20.5078	53.6692	20.5078	48.6092	20.5078	54.3803	20.5078	49.0715	20.5078	54.887	20.5078	49.6956	20.5078	55.178	20.5078	50.4421	20.5078	55.2532	20.5078	51.2618	20.5078	55.1211	20.5078	52.1039	20.5078	54.7971	20.5078	52.9199	20.5078	54.3028	20.5078	53.6659
21.9727	46.4769	21.9727	46.6756	21.9727	46.2315	21.9727	46.7811	21.9727	46.042	21.9727	46.7794	21.9727	46.083	21.9727	46.6747	21.9727	46.5494	21.9727	46.4854	21.9727	47.5123	21.9727	46.2462	21.9727	48.8399	21.9727	46.0128	21.9727	50.3049	21.9727	45.8657	21.9727	51.7194	21.9727	45.9002	21.9727	52.9708	21.9727	46.198	21.9727	54.0025	21.9727	46.7881	21.9727	54.7892	21.9727	47.6308	21.9727	55.3226	21.9727	48.6429	21.9727	55.605	21.9727	49.7359	21.9727	55.6457	21.9727	50.8379	21.9727	55.4596	21.9727	51.8978	21.9727	55.0663	21.9727	52.8785	21.9727	54.4886	21.9727	53.7509
23.4375	50.0746	23.4375	50.2152	23.4375	49.8732	23.4375	50.2586	23.4375	49.6907	23.4375	50.1947	23.4375	49.6618	23.4375	50.032	23.4375	49.9503	23.4375	49.7954	23.4375	50.6553	23.4375	49.5292	23.4375	51.7223	23.4375	49.3007	23.4375	52.9811	23.4375	49.1978	23.4375	54.2549	23.4375	49.3102	23.4375	55.4202	23.4375	49.6942	23.4375	56.4071	23.4375	50.344	23.4375	57.1815	23.4375	51.1969	23.4375	57.7303	23.4375	52.1674	23.4375	58.0529	23.4375	53.1779	23.4375	58.1567	23.4375	54.1705	23.4375	58.0548	23.4375	55.1052	23.4375	57.764	23.4375	55.9536	23.4375	57.3035	23.4375	56.6932
24.9023	52.1505	24.9023	52.2153	24.9023	52.0936	24.9023	52.2478	24.9023	52.1196	24.9023	52.2359	24.9023	52.3331	24.9023	52.188	24.9023	52.8303	24.9023	52.1282	24.9023	53.6377	24.9023	52.0939	24.9023	54.6857	24.9023	52.131	24.9023	55.847	24.9023	52.2859	24.9023	56.9977	24.9023	52.5935	24.9023	58.0468	24.9023	53.0663	24.9023	58.9378	24.9023	53.6901	24.9023	59.6393	24.9023	54.4308	24.9023	60.1372	24.9023	55.2459	24.9023	60.4284	24.9023	56.0936	24.9023	60.5186	24.9023	56.9379	24.9023	60.4191	24.9023	57.7482	24.9023	60.1466	24.9023	58.4983	24.9023	59.7208	24.9023	59.1637
26.3672	55.3964	26.3672	55.3109	26.3672	55.5654	26.3672	55.2842	26.3672	55.8428	26.3672	55.296	26.3672	56.2471	26.3672	55.3334	26.3672	56.7834	26.3672	55.3914	26.3672	57.4383	26.3672	55.4731	26.3672	58.1796	26.3672	55.588	26.3672	58.9613	26.3672	55.7495	26.3672	59.7316	26.3672	55.9722	26.3672	60.441	26.3672	56.268	26.3672	61.0476	26.3672	56.6429	26.3672	61.5197	26.3672	57.0956	26.3672	61.837	26.3672	57.6168	26.3672	61.9899	26.3672	58.1911	26.3672	61.9792	26.3672	58.7987	26.3672	61.8147	26.3672	59.4174	26.3672	61.5134	26.3672	60.0235	26.3672	61.0975	26.3672	60.5922
27.832	57.4691	27.832	57.4367	27.832	57.4989	27.832	57.3811	27.832	57.5611	27.832	57.2944	27.832	57.7039	27.832	57.1792	27.832	57.9783	27.832	57.0476	27.832	58.4191	27.832	56.92	27.832	59.0248	27.832	56.8252	27.832	59.7524	27.832	56.7975	27.832	60.5321	27.832	56.8718	27.832	61.2895	27.832	57.0759	27.832	61.962	27.832	57.422	27.832	62.5041	27.832	57.9022	27.832	62.888	27.832	58.4915	27.832	63.1005	27.832	59.154	27.832	63.1401	27.832	59.8514	27.832	63.0147	27.832	60.5478	27.832	62.7388	27.832	61.2115	27.832	62.3314	27.832	61.8145
29.2969	59.6537	29.2969	59.6044	29.2969	59.7088	29.2969	59.5458	29.2969	59.7968	29.2969	59.4728	29.2969	59.9543	29.2969	59.3886	29.2969	60.2208	29.2969	59.3035	29.2969	60.6235	29.2969	59.2335	29.2969	61.1631	29.2969	59.1995	29.2969	61.8072	29.2969	59.2246	29.2969	62.4996	29.2969	59.3312	29.2969	63.1768	29.2969	59.5359	29.2969	63.7815	29.2969	59.846	29.2969	64.2704	29.2969	60.2569	29.2969	64.6157	29.2969	60.7528	29.2969	64.8036	29.2969	61.3104	29.2969	64.8325	29.2969	61.9025	29.2969	64.7108	29.2969	62.5016	29.2969	64.4536	29.2969	63.081	29.2969	64.0811	29.2969	63.6156
30.7617	60.7656	30.7617	60.6846	30.7617	60.8804	30.7617	60.6174	30.7617	61.0579	30.7617	60.554	30.7617	61.3305	30.7617	60.4938	30.7617	61.7244	30.7617	60.4439	30.7617	62.247	30.7617	60.4181	30.7617	62.8799	30.7617	60.4345	30.7617	63.5812	30.7617	60.5133	30.7617	64.2967	30.7617	60.6733	30.7617	64.9715	30.7617	60.9278	30.7617	65.5588	30.7617	61.2812	30.7617	66.0234	30.7617	61.7277	30.7617	66.3427	30.7617	62.252	30.7617	66.5057	30.7617	62.8326	30.7617	66.5116	30.7617	63.4445	30.7617	66.3684	30.7617	64.0621	30.7617	66.0909	30.7617	64.6601	30.7617	65.6985	30.7617	65.2137
32.2266	63.3699	32.2266	63.2729	32.2266	63.5026	32.2266	63.1984	32.2266	63.6886	32.2266	63.1393	32.2266	63.9473	32.2266	63.0946	32.2266	64.294	32.2266	63.0686	32.2266	64.7335	32.2266	63.07	32.2266	65.2547	32.2266	63.1109	32.2266	65.8309	32.2266	63.2047	32.2266	66.4238	32.2266	63.3638	32.2266	66.9909	32.2266	63.5972	32.2266	67.4926	32.2266	63.9078	32.2266	67.8965	32.2266	64.2917	32.2266	68.18	32.2266	64.7382	32.2266	68.3307	32.2266	65.231	32.2266	68.3461	32.2266	65.7507	32.2266	68.2318	32.2266	66.276	32.2266	68.0004	32.2266	66.7853	32.2266	67.6688	32.2266	67.2567
33.6914	65.2922	33.6914	65.1712	33.6914	65.4459	33.6914	65.0737	33.6914	65.6447	33.6914	64.995	33.6914	65.9017	33.6914	64.9348	33.6914	66.2274	33.6914	64.8969	33.6914	66.6247	33.6914	64.8887	33.6914	67.0852	33.6914	64.9199	33.6914	67.5885	33.6914	65.0012	33.6914	68.1043	33.6914	65.1425	33.6914	68.5973	33.6914	65.3509	33.6914	69.0333	33.6914	65.6288	33.6914	69.3827	33.6914	65.9733	33.6914	69.6242	33.6914	66.3756	33.6914	69.7455	33.6914	66.8223	33.6914	69.7435	33.6914	67.2964	33.6914	69.6234	33.6914	67.7791	33.6914	69.3968	33.6914	68.2508	33.6914	69.0797	33.6914	68.6911
35.1562	67.5304	35.1562	67.4257	35.1562	67.6559	35.1562	67.335	35.1562	67.8122	35.1562	67.2557	35.1562	68.0117	35.1562	67.1887	35.1562	68.2658	35.1562	67.1385	35.1562	68.5809	35.1562	67.1121	35.1562	68.9547	35.1562	67.1184	35.1562	69.3736	35.1562	67.1676	35.1562	69.8135	35.1562	67.2689	35.1562	70.2436	35.1562	67.4297	35.1562	70.6314	35.1562	67.6539	35.1562	70.9478	35.1562	67.9405	35.1562	71.1707	35.1562	68.2832	35.1562	71.2862	35.1562	68.6711	35.1562	71.2897	35.1562	69.0892	35.1562	71.1847	35.1562	69.52	35.1562	70.9815	35.1562	69.9444	35.1562	70.6948	35.1562	70.3427
36.6211	68.6599	36.6211	68.5579	36.6211	68.7865	36.6211	68.4741	36.6211	68.9472	36.6211	68.4055	36.6211	69.1525	36.6211	68.3522	36.6211	69.4116	36.6211	68.3175	36.6211	69.7289	36.6211	68.307	36.6211	70.1005	36.6211	68.3282	36.6211	70.5123	36.6211	68.3893	36.6211	70.9411	36.6211	68.4981	36.6211	71.3576	36.6211	68.6608	36.6211	71.7314	36.6211	68.8807	36.6211	72.0352	36.6211	69.157	36.6211	72.2479	36.6211	69.4843	36.6211	72.3569	36.6211	69.8531	36.6211	72.3579	36.6211	70.2502	36.6211	72.2549	36.6211	70.6597	36.6211	72.058	36.6211	71.0639	36.6211	71.782	36.6211	71.4444
38.0859	70.0222	38.0859	69.9045	38.0859	70.1625	38.0859	69.8046	38.0859	70.3326	38.0859	69.7206	38.0859	70.5408	38.0859	69.6533	38.0859	70.7944	38.0859	69.6058	38.0859	71.097	38.0859	69.5835	38.0859	71.4451	38.0859	69.5929	38.0859	71.8265	38.0859	69.6415	38.0859	72.2209	38.0859	69.7362	38.0859	72.602	38.0859	69.8828	38.0859	72.9421	38.0859	70.0846	38.0859	73.2156	38.0859	70.3412	38.0859	73.4026	38.0859	70.6485	38.0859	73.4906	38.0859	70.9982	38.0859	73.4757	38.0859	71.3782	38.0859	73.3613	38.0859	71.7738	38.0859	73.1574	38.0859	72.168	38.0859	72.8787	38.0859	72.5426
39.5508	71.2603	39.5508	71.1516	39.5508	71.3926	39.5508	71.0611	39.5508	71.5561	39.5508	70.9865	39.5508	71.7594	39.5508	70.9284	39.5508	72.0095	39.5508	70.89	39.5508	72.309	39.5508	70.8764	39.5508	72.6533	39.5508	70.8941	39.5508	73.0294	39.5508	70.9499	39.5508	73.4167	39.5508	71.0504	39.5508	73.7899	39.5508	71.2004	39.5508	74.1225	39.5508	71.4027	39.5508	74.3903	39.5508	71.6564	39.5508	74.5748	39.5508	71.9573	39.5508	74.6643	39.5508	72.2971	39.5508	74.655	39.5508	72.6642	39.5508	74.5505	39.5508	73.0445	39.5508	74.36	39.5508	73.4218	39.5508	74.0973	39.5508	73.7787
41.0156	72.3441	41.0156	72.2089	41.0156	72.513	41.0156	72.1043	41.0156	72.719	41.0156	72.0285	41.0156	72.9653	41.0156	71.9813	41.0156	73.2525	41.0156	71.9636	41.0156	73.5777	41.0156	71.9778	41.0156	73.933	41.0156	72.0272	41.0156	74.305	41.0156	72.1151	41.0156	74.6754	41.0156	72.2449	41.0156	75.0231	41.0156	72.4186	41.0156	75.3263	41.0156	72.6369	41.0156	75.5654	41.0156	72.8979	41.0156	75.7252	41.0156	73.1971	41.0156	75.7965	41.0156	73.5275	41.0156	75.7769	41.0156	73.8792	41.0156	75.6702	41.0156	74.2401	41.0156	75.4852	41.0156	74.5964	41.0156	75.2346	41.0156	74.9331
42.4805	73.7499	42.4805	73.6199	42.4805	73.9077	42.4805	73.5152	42.4805	74.0961	42.4805	73.4344	42.4805	74.3175	42.4805	73.3775	42.4805	74.5728	42.4805	73.3455	42.4805	74.8597	42.4805	73.3407	42.4805	75.1715	42.4805	73.3659	42.4805	75.497	42.4805	73.4248	42.4805	75.8203	42.4805	73.5208	42.4805	76.1227	42.4805	73.6567	42.4805	76.3845	42.4805	73.8341	42.4805	76.5877	42.4805	74.0528	42.4805	76.7178	42.4805	74.3101	42.4805	76.7664	42.4805	74.6006	42.4805	76.731	42.4805	74.9159	42.4805	76.6155	42.4805	75.2454	42.4805	76.4287	42.4805	75.5763	42.4805	76.1833	42.4805	75.894
43.9453	74.8007	43.9453	74.6807	43.9453	74.9466	43.9453	74.5845	43.9453	75.121	43.9453	74.5104	43.9453	75.326	43.9453	74.4581	43.9453	75.5619	43.9453	74.4283	43.9453	75.8263	43.9453	74.423	43.9453	76.1131	43.9453	74.445	43.9453	76.4122	43.9453	74.4976	43.9453	76.7093	43.9453	74.5843	43.9453	76.9873	43.9453	74.708	43.9453	77.2281	43.9453	74.8702	43.9453	77.415	43.9453	75.071	43.9453	77.5347	43.9453	75.3078	43.9453	77.5792	43.9453	75.5756	43.9453	77.5461	43.9453	75.8669	43.9453	77.439	43.9453	76.1715	43.9453	77.2661	43.9453	76.4775	43.9453	77.0391	43.9453	76.7714
45.4102	75.6466	45.4102	75.5244	45.4102	75.7948	45.4102	75.4261	45.4102	75.9708	45.4102	75.3502	45.4102	76.1759	45.4102	75.2964	45.4102	76.4099	45.4102	75.2652	45.4102	76.6696	45.4102	75.2584	45.4102	76.9489	45.4102	75.2785	45.4102	77.2377	45.4102	75.3286	45.4102	77.5224	45.4102	75.4118	45.4102	77.787	45.4102	75.5308	45.4102	78.0145	45.4102	75.687	45.4102	78.1891	45.4102	75.8803	45.4102	78.2985	45.4102	76.1085	45.4102	78.335	45.4102	76.3668	45.4102	78.2968	45.4102	76.6482	45.4102	78.1873	45.4102	76.9434	45.4102	78.0147	45.4102	77.2409	45.4102	77.7904	45.4102	77.5278
46.875	76.407	46.875	76.2709	46.875	76.5783	46.875	76.1696	46.875	76.7842	46.875	76.1019	46.875	77.0219	46.875	76.0662	46.875	77.2868	46.875	76.0614	46.875	77.5722	46.875	76.0871	46.875	77.8692	46.875	76.1434	46.875	78.1667	46.875	76.2307	46.875	78.4519	46.875	76.3499	46.875	78.711	46.875	76.5011	46.875	78.93	46.875	76.6839	46.875	79.0964	46.875	76.8967	46.875	79.2006	46.875	77.1364	46.875	79.2369	46.875	77.398	46.875	79.2044	46.875	77.6749	46.875	79.1067	46.875	77.9585	46.875	78.9509	46.875	78.2391	46.875	78.7469	46.875	78.5058
48.3398	77.2856	48.3398	77.1334	48.3398	77.4593	48.3398	77.0045	48.3398	77.6529	48.3398	76.9004	48.3398	77.8642	48.3398	76.8226	48.3398	78.0903	48.3398	76.7726	48.3398	78.3273	48.3398	76.7518	48.3398	78.5694	48.3398	76.7616	48.3398	78.8091	48.3398	76.8031	48.3398	79.0362	48.3398	76.8774	48.3398	79.239	48.3398	76.985	48.3398	79.4053	48.3398	77.1255	48.3398	79.5233	48.3398	77.298	48.3398	79.5841	48.3398	77.5	48.3398	79.5825	48.3398	77.7278	48.3398	79.5179	48.3398	77.9757	48.3398	79.3945	48.3398	78.2369	48.3398	79.2203	48.3398	78.5025	48.3398	79.0057	48.3398	78.7625
51.2695	78.5683	51.2695	78.4246	51.2695	78.7303	51.2695	78.3009	51.2695	78.909	51.2695	78.1986	51.2695	79.1019	51.2695	78.1188	51.2695	79.3061	51.2695	78.0629	51.2695	79.5174	51.2695	78.0321	51.2695	79.7303	51.2695	78.0273	51.2695	79.9375	51.2695	78.0498	51.2695	80.1301	51.2695	78.1004	51.2695	80.298	51.2695	78.1798	51.2695	80.4306	51.2695	78.2883	51.2695	80.518	51.2695	78.4257	51.2695	80.5528	51.2695	78.591	51.2695	80.5307	51.2695	78.7821	51.2695	80.452	51.2695	78.9955	51.2695	80.321	51.2695	79.2258	51.2695	80.1459	51.2695	79.4658	51.2695	79.9371	51.2695	79.7065
52.7344	79.0927	52.7344	78.951	52.7344	79.2509	52.7344	78.8273	52.7344	79.4237	52.7344	78.7228	52.7344	79.6089	52.7344	78.6389	52.7344	79.8034	52.7344	78.5769	52.7344	80.0032	52.7344	78.538	52.7344	80.2028	52.7344	78.5235	52.7344	80.3953	52.7344	78.5349	52.7344	80.5723	52.7344	78.5734	52.7344	80.7244	52.7344	78.6401	52.7344	80.8418	52.7344	78.7357	52.7344	80.9158	52.7344	78.8607	52.7344	80.9396	52.7344	79.0143	52.7344	80.9096	52.7344	79.1947	52.7344	80.8262	52.7344	79.3986	52.7344	80.6936	52.7344	79.6206	52.7344	80.5195	52.7344	79.8535	52.7344	80.3139	52.7344	80.0881
54.1992	79.4594	54.1992	79.3154	54.1992	79.6202	54.1992	79.1902	54.1992	79.7953	54.1992	79.0854	54.1992	79.9817	54.1992	79.0024	54.1992	80.1753	54.1992	78.9422	54.1992	80.3715	54.1992	78.9059	54.1992	80.5644	54.1992	78.8944	54.1992	80.7472	54.1992	78.9086	54.1992	80.9119	54.1992	78.9492	54.1992	81.0501	54.1992	79.0167	54.1992	81.1535	54.1992	79.1116	54.1992	81.2146	54.1992	79.2336	54.1992	81.2279	54.1992	79.3818	54.1992	81.1911	54.1992	79.5543	54.1992	81.1051	54.1992	79.7478	54.1992	80.9745	54.1992	79.9574	54.1992	80.8067	54.1992	80.1768	54.1992	80.6111	54.1992	80.3977
55.6641	79.7392	55.6641	79.5934	55.6641	79.9025	55.6641	79.4678	55.6641	80.0802	55.6641	79.3644	55.6641	80.2682	55.6641	79.2845	55.6641	80.4618	55.6641	79.2289	55.6641	80.6558	55.6641	79.1982	55.6641	80.8442	55.6641	79.1927	55.6641	81.0204	55.6641	79.2125	55.6641	81.1771	55.6641	79.2578	55.6641	81.3067	55.6641	79.3287	55.6641	81.4017	55.6641	79.4249	55.6641	81.4557	55.6641	79.546	55.6641	81.4642	55.6641	79.6909	55.6641	81.4252	55.6641	79.8578	55.6641	81.3403	55.6641	80.0436	55.6641	81.2138	55.6641	80.2439	55.6641	81.0528	55.6641	80.4528	55.6641	80.8661	55.6641	80.663
58.5938	80.277	58.5938	80.13	58.5938	80.4389	58.5938	80.0004	58.5938	80.6123	58.5938	79.8905	58.5938	80.7932	58.5938	79.8017	58.5938	80.977	58.5938	79.7353	58.5938	81.1584	58.5938	79.6921	58.5938	81.3314	58.5938	79.6726	58.5938	81.4896	58.5938	79.6775	58.5938	81.6261	58.5938	79.7071	58.5938	81.734	58.5938	79.7617	58.5938	81.807	58.5938	79.8412	58.5938	81.8397	58.5938	79.9457	58.5938	81.8286	58.5938	80.0743	58.5938	81.773	58.5938	80.2256	58.5938	81.675	58.5938	80.397	58.5938	81.5396	58.5938	80.5849	58.5938	81.374	58.5938	80.7838	58.5938	81.1868	58.5938	80.9871
60.0586	80.5281	60.0586	80.3794	60.0586	80.6911	60.0586	80.2481	60.0586	80.8648	60.0586	80.1366	60.0586	81.0446	60.0586	80.0467	60.0586	81.2258	60.0586	79.9796	60.0586	81.4026	60.0586	79.9361	60.0586	81.5691	60.0586	79.9165	60.0586	81.7191	60.0586	79.9211	60.0586	81.8458	60.0586	79.9498	60.0586	81.9432	60.0586	80.0024	60.0586	82.0053	60.0586	80.0787	60.0586	82.0278	60.0586	80.1783	60.0586	82.008	60.0586	80.3004	60.0586	81.9459	60.0586	80.4437	60.0586	81.8439	60.0586	80.6061	60.0586	81.7075	60.0586	80.7843	60.0586	81.5438	60.0586	80.9737	60.0586	81.3612	60.0586	81.1685
62.9883	81.105	62.9883	80.9613	62.9883	81.2626	62.9883	80.8346	62.9883	81.4302	62.9883	80.7271	62.9883	81.6032	62.9883	80.6404	62.9883	81.7761	62.9883	80.5754	62.9883	81.9429	62.9883	80.5326	62.9883	82.0976	62.9883	80.5122	62.9883	82.2339	62.9883	80.5143	62.9883	82.3458	62.9883	80.5387	62.9883	82.428	62.9883	80.5854	62.9883	82.4758	62.9883	80.654	62.9883	82.486	62.9883	80.7442	62.9883	82.4573	62.9883	80.8553	62.9883	82.3905	62.9883	80.9862	62.9883	82.2886	62.9883	81.1349	62.9883	82.1568	62.9883	81.2985	62.9883	82.0019	62.9883	81.4727	62.9883	81.8312	62.9883	81.6524
64.4531	81.2595	64.4531	81.1112	64.4531	81.4214	64.4531	80.9802	64.4531	81.5925	64.4531	80.8692	64.4531	81.7676	64.4531	80.78	64.4531	81.9408	64.4531	80.7137	64.4531	82.106	64.4531	80.6709	64.4531	82.2571	64.4531	80.6517	64.4531	82.3879	64.4531	80.6556	64.4531	82.493	64.4531	80.6824	64.4531	82.5674	64.4531	80.7312	64.4531	82.6073	64.4531	80.8015	64.4531	82.6102	64.4531	80.8924	64.4531	82.5754	64.4531	81.0028	64.4531	82.5043	64.4531	81.1315	64.4531	82.4004	64.4531	81.2764	64.4531	82.2689	64.4531	81.4348	64.4531	82.1165	64.4531	81.6032	64.4531	81.9501	64.4531	81.7768
67.3828	81.4781	67.3828	81.3269	67.3828	81.6408	67.3828	81.1913	67.3828	81.81	67.3828	81.0748	67.3828	81.9802	67.3828	80.9797	67.3828	82.1456	67.3828	80.9077	67.3828	82.3	67.3828	80.8596	67.3828	82.4377	67.3828	80.8354	67.3828	82.553	67.3828	80.8348	67.3828	82.6411	67.3828	80.8569	67.3828	82.698	67.3828	80.9009	67.3828	82.7207	67.3828	80.9655	67.3828	82.7081	67.3828	81.0495	67.3828	82.6604	67.3828	81.1516	67.3828	82.5799	67.3828	81.2703	67.3828	82.4709	67.3828	81.4038	67.3828	82.3387	67.3828	81.55	67.3828	82.1898	67.3828	81.7058	67.3828	82.0307	67.3828	81.8676
68.8477	81.5595	68.8477	81.4092	68.8477	81.7207	68.8477	81.274	68.8477	81.888	68.8477	81.1572	68.8477	82.0559	68.8477	81.0615	68.8477	82.2184	68.8477	80.9883	68.8477	82.3697	68.8477	80.9386	68.8477	82.5036	68.8477	80.9124	68.8477	82.6146	68.8477	80.9095	68.8477	82.6978	68.8477	80.929	68.8477	82.7492	68.8477	80.9698	68.8477	82.7662	68.8477	81.0307	68.8477	82.7477	68.8477	81.1105	68.8477	82.6945	68.8477	81.2077	68.8477	82.6094	68.8477	81.321	68.8477	82.497	68.8477	81.4489	68.8477	82.3631	68.8477	81.5893	68.8477	82.2142	68.8477	81.7398	68.8477	82.0569	68.8477	81.8971
71.7773	82.0388	71.7773	81.8911	71.7773	82.1969	71.7773	81.7579	71.7773	82.3603	71.7773	81.6427	71.7773	82.5232	71.7773	81.5479	71.7773	82.6796	71.7773	81.4751	71.7773	82.8232	71.7773	81.4251	71.7773	82.9476	71.7773	81.3978	71.7773	83.0474	71.7773	81.3925	71.7773	83.1179	71.7773	81.4083	71.7773	83.1554	71.7773	81.4436	71.7773	83.1582	71.7773	81.4971	71.7773	83.1263	71.7773	81.5675	71.7773	83.0616	71.7773	81.6533	71.7773	82.9679	71.7773	81.7536	71.7773	82.8506	71.7773	81.867	71.7773	82.7161	71.7773	81.9925	71.7773	82.5709	71.7773	82.1283	71.7773	82.4212	71.7773	82.2723
74.707	82.4658	74.707	82.3199	74.707	82.6212	74.707	82.1877	74.707	82.7807	74.707	82.0727	74.707	82.9383	74.707	81.9773	74.707	83.0879	74.707	81.9029	74.707	83.2227	74.707	81.8499	74.707	83.3366	74.707	81.8181	74.707	83.424	74.707	81.8065	74.707	83.4804	74.707	81.8142	74.707	83.5029	74.707	81.8396	74.707	83.4902	74.707	81.8816	74.707	83.4433	74.707	81.9389	74.707	83.3651	74.707	82.0107	74.707	83.2604	74.707	82.0963	74.707	83.1354	74.707	82.1953	74.707	82.9969	74.707	82.3069	74.707	82.8517	74.707	82.4304	74.707	82.7058	74.707	82.5642
77.6367	82.5289	77.6367	82.3804	77.6367	82.6853	77.6367	82.2447	77.6367	82.8438	77.6367	82.1256	77.6367	82.9982	77.6367	82.0257	77.6367	83.1416	77.6367	81.9466	77.6367	83.2674	77.6367	81.8887	77.6367	83.3693	77.6367	81.8516	77.6367	83.4423	77.6367	81.8344	77.6367	83.4823	77.6367	81.8357	77.6367	83.4873	77.6367	81.854	77.6367	83.4571	77.6367	81.8878	77.6367	83.3936	77.6367	81.9357	77.6367	83.301	77.6367	81.997	77.6367	83.185	77.6367	82.0712	77.6367	83.0525	77.6367	82.1579	77.6367	82.9108	77.6367	82.2572	77.6367	82.7666	77.6367	82.3688	77.6367	82.6256	77.6367	82.4921
79.1016	82.6149	79.1016	82.4659	79.1016	82.7698	79.1016	82.3279	79.1016	82.9246	79.1016	82.2049	79.1016	83.0731	79.1016	82.0999	79.1016	83.2087	79.1016	82.0147	79.1016	83.3249	79.1016	81.9501	79.1016	83.416	79.1016	81.9059	79.1016	83.4773	79.1016	81.8812	79.1016	83.5053	79.1016	81.8747	79.1016	83.4983	79.1016	81.8851	79.1016	83.4567	79.1016	81.9106	79.1016	83.3829	79.1016	81.9503	79.1016	83.2812	79.1016	82.0031	79.1016	83.1578	79.1016	82.0688	79.1016	83.02	79.1016	82.1473	79.1016	82.8753	79.1016	82.2388	79.1016	82.7304	79.1016	82.3436	79.1016	82.5911	79.1016	82.4614
82.0312	82.9611	82.0312	82.8145	82.0312	83.1128	82.0312	82.6782	82.0312	83.2635	82.0312	82.5564	82.0312	83.4073	82.0312	82.4526	82.0312	83.538	82.0312	82.3688	82.0312	83.6498	82.0312	82.306	82.0312	83.7372	82.0312	82.2641	82.0312	83.7959	82.0312	82.242	82.0312	83.8225	82.0312	82.2381	82.0312	83.815	82.0312	82.2505	82.0312	83.7734	82.0312	82.2772	82.0312	83.6999	82.0312	82.3165	82.0312	83.5985	82.0312	82.3672	82.0312	83.4754	82.0312	82.4288	82.0312	83.3382	82.0312	82.5013	82.0312	83.1947	82.0312	82.5857	82.0312	83.0524	82.0312	82.6828	82.0312	82.9173	82.0312	82.7934
84.9609	83.0163	84.9609	82.8722	84.9609	83.1673	84.9609	82.7399	84.9609	83.3202	84.9609	82.6235	84.9609	83.4698	84.9609	82.5265	84.9609	83.6105	84.9609	82.4515	84.9609	83.7365	84.9609	82.3998	84.9609	83.8423	84.9609	82.3715	84.9609	83.9226	84.9609	82.3657	84.9609	83.9731	84.9609	82.3806	84.9609	83.9911	84.9609	82.4139	84.9609	83.9759	84.9609	82.463	84.9609	83.929	84.9609	82.5258	84.9609	83.8537	84.9609	82.6002	84.9609	83.755	84.9609	82.6849	84.9609	83.6389	84.9609	82.7793	84.9609	83.5116	84.9609	82.8831	84.9609	83.379	84.9609	82.9962	84.9609	83.2464	84.9609	83.1178
87.8906	83.007	87.8906	82.8583	87.8906	83.1628	87.8906	82.7213	87.8906	83.3202	87.8906	82.5998	87.8906	83.473	87.8906	82.4969	87.8906	83.6143	87.8906	82.4144	87.8906	83.7367	87.8906	82.3533	87.8906	83.8335	87.8906	82.314	87.8906	83.8987	87.8906	82.2957	87.8906	83.9282	87.8906	82.297	87.8906	83.9204	87.8906	82.3164	87.8906	83.8765	87.8906	82.3518	87.8906	83.8006	87.8906	82.4015	87.8906	83.6987	87.8906	82.4636	87.8906	83.5783	87.8906	82.5369	87.8906	83.4472	87.8906	82.6206	87.8906	83.3122	87.8906	82.7141	87.8906	83.1786	87.8906	82.8171	87.8906	83.0502	87.8906	82.9293
90.8203	83.7118	90.8203	83.5674	90.8203	83.8554	90.8203	83.427	90.8203	83.9929	90.8203	83.2948	90.8203	84.1186	90.8203	83.174	90.8203	84.2265	90.8203	83.0672	90.8203	84.3111	90.8203	82.9758	90.8203	84.3668	90.8203	82.9001	90.8203	84.3895	90.8203	82.8401	90.8203	84.3766	90.8203	82.7952	90.8203	84.3272	90.8203	82.7645	90.8203	84.2432	90.8203	82.7476	90.8203	84.1284	90.8203	82.7442	90.8203	83.989	90.8203	82.755	90.8203	83.8325	90.8203	82.7811	90.8203	83.6674	90.8203	82.8242	90.8203	83.5019	90.8203	82.8863	90.8203	83.344	90.8203	82.9694	90.8203	83.1998	90.8203	83.0741
95.2148	83.311	95.2148	83.1579	95.2148	83.4738	95.2148	83.0219	95.2148	83.6384	95.2148	82.909	95.2148	83.7962	95.2148	82.8236	95.2148	83.9388	95.2148	82.7681	95.2148	84.0585	95.2148	82.7431	95.2148	84.149	95.2148	82.747	95.2148	84.206	95.2148	82.7765	95.2148	84.2275	95.2148	82.8273	95.2148	84.2146	95.2148	82.8941	95.2148	84.1717	95.2148	82.9718	95.2148	84.1053	95.2148	83.0553	95.2148	84.0237	95.2148	83.1408	95.2148	83.935	95.2148	83.2251	95.2148	83.8461	95.2148	83.3065	95.2148	83.761	95.2148	83.3845	95.2148	83.6812	95.2148	83.4594	95.2148	83.6056	95.2148	83.5324
98.1445	83.515	98.1445	83.3658	98.1445	83.6679	98.1445	83.2263	98.1445	83.8183	98.1445	83.1014	98.1445	83.959	98.1445	82.995	98.1445	84.0827	98.1445	82.9103	98.1445	84.1822	98.1445	82.8491	98.1445	84.2514	98.1445	82.8121	98.1445	84.2856	98.1445	82.7987	98.1445	84.2829	98.1445	82.8071	98.1445	84.2439	98.1445	82.8347	98.1445	84.1728	98.1445	82.8779	98.1445	84.0764	98.1445	82.9329	98.1445	83.9639	98.1445	82.9959	98.1445	83.8448	98.1445	83.0637	98.1445	83.7277	98.1445	83.1338	98.1445	83.6186	98.1445	83.205	98.1445	83.5201	98.1445	83.2772	98.1445	83.432	98.1445	83.352
101.074	83.5765	101.074	83.4151	101.074	83.7416	101.074	83.2642	101.074	83.9029	101.074	83.1296	101.074	84.0526	101.074	83.0161	101.074	84.1826	101.074	82.9273	101.074	84.2856	101.074	82.8654	101.074	84.3554	101.074	82.8309	101.074	84.3876	101.074	82.8232	101.074	84.3808	101.074	82.8401	101.074	84.3366	101.074	82.8783	101.074	84.2599	101.074	82.9339	101.074	84.159	101.074	83.002	101.074	84.0439	101.074	83.0781	101.074	83.9253	101.074	83.1577	101.074	83.8118	101.074	83.2372	101.074	83.7088	101.074	83.3144	101.074	83.6178	101.074	83.3888	101.074	83.5368	101.074	83.4619
105.469	84.0906	105.469	83.9406	105.469	84.2428	105.469	83.8	105.469	84.3887	105.469	83.6746	105.469	84.5195	105.469	83.5682	105.469	84.6268	105.469	83.4825	105.469	84.7027	105.469	83.4172	105.469	84.741	105.469	83.3702	105.469	84.7375	105.469	83.3383	105.469	84.6905	105.469	83.3177	105.469	84.6013	105.469	83.3047	105.469	84.4746	105.469	83.2959	105.469	84.3184	105.469	83.2892	105.469	84.144	105.469	83.2837	105.469	83.9642	105.469	83.2799	105.469	83.7922	105.469	83.2802	105.469	83.6393	105.469	83.2885	105.469	83.5133	105.469	83.3101	105.469	83.4175	105.469	83.3512
108.398	84.1215	108.398	83.9756	108.398	84.2648	108.398	83.834	108.398	84.3978	108.398	83.7031	108.398	84.5132	108.398	83.5879	108.398	84.6041	108.398	83.4916	108.398	84.6647	108.398	83.4159	108.398	84.6905	108.398	83.3607	108.398	84.6789	108.398	83.3243	108.398	84.6295	108.398	83.3039	108.398	84.5446	108.398	83.2957	108.398	84.4291	108.398	83.2962	108.398	84.2907	108.398	83.3021	108.398	84.1392	108.398	83.3112	108.398	83.985	108.398	83.323	108.398	83.838	108.398	83.3385	108.398	83.7064	108.398	83.3604	108.398	83.5952	108.398	83.3928	108.398	83.5067	108.398	83.4401
112.793	84.2309	112.793	84.075	112.793	84.3811	112.793	83.9197	112.793	84.5184	112.793	83.7706	112.793	84.6358	112.793	83.6328	112.793	84.7263	112.793	83.5101	112.793	84.7834	112.793	83.4057	112.793	84.8017	112.793	83.3215	112.793	84.7779	112.793	83.2582	112.793	84.7115	112.793	83.2156	112.793	84.6052	112.793	83.1923	112.793	84.4658	112.793	83.1859	112.793	84.3035	112.793	83.1937	112.793	84.1312	112.793	83.2124	112.793	83.9621	112.793	83.2394	112.793	83.8075	112.793	83.2726	112.793	83.6746	112.793	83.3114	112.793	83.5658	112.793	83.3568	112.793	83.4795	112.793	83.4114
117.188	84.3916	117.188	84.2305	117.188	84.5455	117.188	84.0694	117.188	84.6842	117.188	83.9143	117.188	84.7994	117.188	83.7693	117.188	84.8834	117.188	83.6374	117.188	84.9291	117.188	83.5199	117.188	84.9312	117.188	83.4169	117.188	84.8861	117.188	83.328	117.188	84.7928	117.188	83.2521	117.188	84.6534	117.188	83.188	117.188	84.4736	117.188	83.1345	117.188	84.2632	117.188	83.0905	117.188	84.0353	117.188	83.0556	117.188	83.8059	117.188	83.0298	117.188	83.5909	117.188	83.0146	117.188	83.404	117.188	83.0129	117.188	83.2539	117.188	83.0295	117.188	83.1436	117.188	83.0707
120.117	84.3198	120.117	84.1767	120.117	84.4548	120.117	84.0316	120.117	84.5756	120.117	83.8899	120.117	84.6761	120.117	83.7558	120.117	84.7504	120.117	83.6323	120.117	84.7935	120.117	83.5207	120.117	84.8011	120.117	83.4216	120.117	84.7698	120.117	83.3343	120.117	84.698	120.117	83.2578	120.117	84.586	120.117	83.1908	120.117	84.4367	120.117	83.1325	120.117	84.2563	120.117	83.0824	120.117	84.0545	120.117	83.0409	120.117	83.8432	120.117	83.0098	120.117	83.6362	120.117	82.9922	120.117	83.4467	120.117	82.9925	120.117	83.2856	120.117	83.0166	120.117	83.1595	120.117	83.0706
124.512	84.0153	124.512	83.8562	124.512	84.1739	124.512	83.7043	124.512	84.3243	124.512	83.5668	124.512	84.459	124.512	83.4498	124.512	84.5711	124.512	83.3575	124.512	84.6546	124.512	83.2922	124.512	84.7045	124.512	83.2536	124.512	84.7175	124.512	83.239	124.512	84.6927	124.512	83.2444	124.512	84.6314	124.512	83.2644	124.512	84.538	124.512	83.2939	124.512	84.4193	124.512	83.3282	124.512	84.2838	124.512	83.364	124.512	84.1414	124.512	83.3999	124.512	84.0012	124.512	83.4367	124.512	83.8712	124.512	83.477	124.512	83.757	124.512	83.5249	124.512	83.6616	124.512	83.5851
128.906	84.0972	128.906	83.9278	128.906	84.2634	128.906	83.764	128.906	84.4176	128.906	83.6138	128.906	84.5513	128.906	83.484	128.906	84.657	128.906	83.3798	128.906	84.7283	128.906	83.304	128.906	84.7607	128.906	83.2569	128.906	84.7522	128.906	83.2365	128.906	84.7033	128.906	83.2387	128.906	84.6176	128.906	83.2583	128.906	84.5016	128.906	83.2892	128.906	84.3643	128.906	83.3261	128.906	84.2164	128.906	83.3644	128.906	84.0687	128.906	83.4016	128.906	83.9305	128.906	83.4372	128.906	83.8086	128.906	83.4732	128.906	83.7068	128.906	83.5132	128.906	83.6254	128.906	83.5622
133.301	84.1232	133.301	83.9493	133.301	84.2908	133.301	83.7779	133.301	84.443	133.301	83.6173	133.301	84.5714	133.301	83.4743	133.301	84.6686	133.301	83.3543	133.301	84.7284	133.301	83.2606	133.301	84.7471	133.301	83.1944	133.301	84.723	133.301	83.1551	133.301	84.6572	133.301	83.1399	133.301	84.554	133.301	83.145	133.301	84.421	133.301	83.1655	133.301	84.2686	133.301	83.1965	133.301	84.1087	133.301	83.2334	133.301	83.9532	133.301	83.2729	133.301	83.8117	133.301	83.313	133.301	83.6903	133.301	83.354	133.301	83.5907	133.301	83.3981	133.301	83.5116	133.301	83.4491
139.16	84.1051	139.16	83.9276	139.16	84.2722	139.16	83.749	139.16	84.4202	139.16	83.5784	139.16	84.5411	139.16	83.4238	139.16	84.6287	139.16	83.2913	139.16	84.6782	139.16	83.1853	139.16	84.6867	139.16	83.1076	139.16	84.6531	139.16	83.0578	139.16	84.5786	139.16	83.0335	139.16	84.4668	139.16	83.0308	139.16	84.3246	139.16	83.0448	139.16	84.1617	139.16	83.0701	139.16	83.9901	139.16	83.1019	139.16	83.8222	139.16	83.1362	139.16	83.6692	139.16	83.1711	139.16	83.5386	139.16	83.2066	139.16	83.4335	139.16	83.2455	139.16	83.3529	139.16	83.2922
143.555	84.0325	143.555	83.8577	143.555	84.1953	143.555	83.6793	143.555	84.3384	143.555	83.5057	143.555	84.4549	143.555	83.345	143.555	84.5392	143.555	83.2037	143.555	84.5867	143.555	83.0869	143.555	84.5947	143.555	82.9978	143.555	84.5618	143.555	82.9371	143.555	84.4893	143.555	82.904	143.555	84.3811	143.555	82.8956	143.555	84.2439	143.555	82.9076	143.555	84.0874	143.555	82.9348	143.555	83.9227	143.555	82.9722	143.555	83.7613	143.555	83.0151	143.555	83.6126	143.555	83.0606	143.555	83.483	143.555	83.108	143.555	83.3749	143.555	83.159	143.555	83.2875	143.555	83.2172
147.949	83.9778	147.949	83.7931	147.949	84.1498	147.949	83.6048	147.949	84.3003	147.949	83.4219	147.949	84.4213	147.949	83.2525	147.949	84.5063	147.949	83.1038	147.949	84.5504	147.949	82.981	147.949	84.5507	147.949	82.8874	147.949	84.5064	147.949	82.8241	147.949	84.42	147.949	82.7905	147.949	84.2965	147.949	82.7837	147.949	84.1448	147.949	82.7996	147.949	83.9762	147.949	82.8325	147.949	83.8038	147.949	82.8767	147.949	83.6402	147.949	82.9267	147.949	83.495	147.949	82.9782	147.949	83.3735	147.949	83.0294	147.949	83.2758	147.949	83.0808	147.949	83.1983	147.949	83.1354
153.809	83.9052	153.809	83.7235	153.809	84.0752	153.809	83.5408	153.809	84.2237	153.809	83.3671	153.809	84.3425	153.809	83.2109	153.809	84.4258	153.809	83.0778	153.809	84.4697	153.809	82.9706	153.809	84.4723	153.809	82.8892	153.809	84.4332	153.809	82.8318	153.809	84.3536	153.809	82.7953	153.809	84.237	153.809	82.7766	153.809	84.0895	153.809	82.7729	153.809	83.9201	153.809	82.7812	153.809	83.7404	153.809	82.7991	153.809	83.5629	153.809	82.8242	153.809	83.3993	153.809	82.8549	153.809	83.258	153.809	82.8907	153.809	83.1431	153.809	82.9331	153.809	83.0537	153.809	82.9857
159.668	83.7031	159.668	83.5003	159.668	83.8941	159.668	83.2973	159.668	84.0631	159.668	83.1071	159.668	84.2021	159.668	82.942	159.668	84.3051	159.668	82.812	159.668	84.3678	159.668	82.7233	159.668	84.388	159.668	82.6769	159.668	84.3657	159.668	82.6691	159.668	84.3034	159.668	82.6926	159.668	84.2066	159.668	82.7386	159.668	84.0838	159.668	82.7979	159.668	83.945	159.668	82.8626	159.668	83.8012	159.668	82.9268	159.668	83.6623	159.668	82.9872	159.668	83.5358	159.668	83.0425	159.668	83.4261	159.668	83.0938	159.668	83.3346	159.668	83.1441	159.668	83.2597	159.668	83.1978
165.527	83.8682	165.527	83.6569	165.527	84.0615	165.527	83.4398	165.527	84.226	165.527	83.2301	165.527	84.3527	165.527	83.0408	165.527	84.4351	165.527	82.8837	165.527	84.4693	165.527	82.7678	165.527	84.4544	165.527	82.6982	165.527	84.3927	165.527	82.6754	165.527	84.2903	165.527	82.6949	165.527	84.1566	165.527	82.7487	165.527	84.0044	165.527	82.8263	165.527	83.8483	165.527	82.9163	165.527	83.7023	165.527	83.008	165.527	83.5775	165.527	83.0927	165.527	83.4797	165.527	83.1646	165.527	83.4088	165.527	83.2212	165.527	83.3599	165.527	83.2636	165.527	83.3253	165.527	83.296
171.387	83.9643	171.387	83.7667	171.387	84.1354	171.387	83.5531	171.387	84.2706	171.387	83.3353	171.387	84.3624	171.387	83.1247	171.387	84.4052	171.387	82.9323	171.387	84.396	171.387	82.767	171.387	84.3341	171.387	82.6354	171.387	84.2218	171.387	82.5409	171.387	84.0646	171.387	82.4839	171.387	83.8722	171.387	82.4615	171.387	83.6584	171.387	82.4686	171.387	83.4402	171.387	82.4976	171.387	83.2361	171.387	82.5402	171.387	83.062	171.387	82.5875	171.387	82.9277	171.387	82.6323	171.387	82.8345	171.387	82.6694	171.387	82.7763	171.387	82.6975	171.387	82.742	171.387	82.7193
177.246	83.7226	177.246	83.5213	177.246	83.8986	177.246	83.3048	177.246	84.0406	177.246	83.0838	177.246	84.1415	177.246	82.8699	177.246	84.1963	177.246	82.674	177.246	84.2018	177.246	82.5056	177.246	84.1572	177.246	82.372	177.246	84.0639	177.246	82.2777	177.246	83.926	177.246	82.2239	177.246	83.7509	177.246	82.2082	177.246	83.5502	177.246	82.2253	177.246	83.3393	177.246	82.2668	177.246	83.1359	177.246	82.3231	177.246	82.9567	177.246	82.3841	177.246	82.8131	177.246	82.4415	177.246	82.7088	177.246	82.4902	177.246	82.6392	177.246	82.5289	177.246	82.594	177.246	82.5609
183.105	83.5029	183.105	83.2911	183.105	83.6872	183.105	83.0643	183.105	83.8342	183.105	82.8369	183.105	83.9374	183.105	82.6237	183.105	83.9932	183.105	82.4383	183.105	84.0013	183.105	82.2914	183.105	83.9634	183.105	82.1894	183.105	83.8829	183.105	82.1334	183.105	83.7643	183.105	82.12	183.105	83.6137	183.105	82.1424	183.105	83.4397	183.105	82.1915	183.105	83.2535	183.105	82.257	183.105	83.0694	183.105	82.3288	183.105	82.9028	183.105	82.3977	183.105	82.7669	183.105	82.4563	183.105	82.6686	183.105	82.5006	183.105	82.6066	183.105	82.5304	183.105	82.5718	183.105	82.5508
188.965	83.593	188.965	83.3743	188.965	83.7801	188.965	83.1352	188.965	83.9261	188.965	82.8887	188.965	84.0243	188.965	82.6481	188.965	84.0701	188.965	82.4264	188.965	84.0619	188.965	82.2348	188.965	84.0005	188.965	82.0821	188.965	83.8889	188.965	81.9736	188.965	83.7328	188.965	81.9112	188.965	83.5402	188.965	81.893	188.965	83.3221	188.965	81.9133	188.965	83.0927	188.965	81.9626	188.965	82.8682	188.965	82.0288	188.965	82.666	188.965	82.0984	188.965	82.5007	188.965	82.1597	188.965	82.3813	188.965	82.205	188.965	82.3073	188.965	82.2329	188.965	82.2689	188.965	82.2498
196.289	83.5676	196.289	83.3564	196.289	83.744	196.289	83.122	196.289	83.8766	196.289	82.8781	196.289	83.9593	196.289	82.6389	196.289	83.9894	196.289	82.4185	196.289	83.9667	196.289	82.2282	196.289	83.8938	196.289	82.0759	196.289	83.7754	196.289	81.9647	196.289	83.6179	196.289	81.8933	196.289	83.4296	196.289	81.8568	196.289	83.2205	196.289	81.8485	196.289	83.0024	196.289	81.8605	196.289	82.7875	196.289	81.8848	196.289	82.5876	196.289	81.9143	196.289	82.4128	196.289	81.9441	196.289	82.27	196.289	81.9721	196.289	82.162	196.289	82.0005	196.289	82.0861	196.289	82.0355
203.613	83.4338	203.613	83.2251	203.613	83.6024	203.613	82.9868	203.613	83.7236	203.613	82.7316	203.613	83.7932	203.613	82.4746	203.613	83.8099	203.613	82.2312	203.613	83.775	203.613	82.0158	203.613	83.6919	203.613	81.84	203.613	83.5656	203.613	81.7114	203.613	83.4023	203.613	81.6324	203.613	83.2098	203.613	81.6007	203.613	82.9972	203.613	81.6093	203.613	82.7752	203.613	81.6477	203.613	82.5563	203.613	81.7029	203.613	82.3545	203.613	81.7618	203.613	82.1833	203.613	81.8133	203.613	82.0528	203.613	81.8509	203.613	81.9662	203.613	81.8747	203.613	81.9172	203.613	81.8922
210.938	83.3348	210.938	83.122	210.938	83.5086	210.938	82.8815	210.938	83.6345	210.938	82.6262	210.938	83.7057	210.938	82.37	210.938	83.7184	210.938	82.1269	210.938	83.672	210.938	81.9092	210.938	83.5699	210.938	81.7268	210.938	83.4198	210.938	81.5853	210.938	83.2336	210.938	81.4866	210.938	83.0262	210.938	81.429	210.938	82.8133	210.938	81.4075	210.938	82.6075	210.938	81.4146	210.938	82.416	210.938	81.4413	210.938	82.2407	210.938	81.4784	210.938	82.0816	210.938	81.5188	210.938	81.9402	210.938	81.5593	210.938	81.8205	210.938	81.6024	210.938	81.7257	210.938	81.655
218.262	83.1936	218.262	82.9782	218.262	83.3708	218.262	82.7369	218.262	83.4992	218.262	82.4828	218.262	83.5709	218.262	82.23	218.262	83.5814	218.262	81.992	218.262	83.5298	218.262	81.7817	218.262	83.4194	218.262	81.6101	218.262	83.2583	218.262	81.4851	218.262	83.0593	218.262	81.4107	218.262	82.8406	218.262	81.3856	218.262	82.6244	218.262	81.4033	218.262	82.432	218.262	81.453	218.262	82.2778	218.262	81.522	218.262	82.164	218.262	81.598	218.262	82.0816	218.262	81.672	218.262	82.0176	218.262	81.7391	218.262	81.9615	218.262	81.7991	218.262	81.9079	218.262	81.8544
225.586	83.1527	225.586	82.9377	225.586	83.3263	225.586	82.6942	225.586	83.448	225.586	82.4365	225.586	83.5106	225.586	82.1788	225.586	83.511	225.586	81.9343	225.586	83.4496	225.586	81.7141	225.586	83.3302	225.586	81.528	225.586	83.1594	225.586	81.3848	225.586	82.9472	225.586	81.2919	225.586	82.7082	225.586	81.2544	225.586	82.4629	225.586	81.2721	225.586	82.2369	225.586	81.3374	225.586	82.0549	225.586	81.4356	225.586	81.9325	225.586	81.5482	225.586	81.8694	225.586	81.657	225.586	81.8509	225.586	81.7479	225.586	81.8546	225.586	81.8123	225.586	81.859	225.586	81.8481
232.91	83.0677	232.91	82.8456	232.91	83.2449	232.91	82.5946	232.91	83.3644	232.91	82.3325	232.91	83.4183	232.91	82.0769	232.91	83.4036	232.91	81.8415	232.91	83.3226	232.91	81.6349	232.91	83.1813	232.91	81.4604	232.91	82.9886	232.91	81.3185	232.91	82.7551	232.91	81.2103	232.91	82.4937	232.91	81.1389	232.91	82.2214	232.91	81.1087	232.91	81.9595	232.91	81.1209	232.91	81.7321	232.91	81.1698	232.91	81.5602	232.91	81.2421	232.91	81.4544	232.91	81.3196	232.91	81.4099	232.91	81.3847	232.91	81.4085	232.91	81.4247	232.91	81.425	232.91	81.4359
241.699	82.824	241.699	82.5613	241.699	83.0359	241.699	82.2667	241.699	83.1831	241.699	81.9627	241.699	83.2573	241.699	81.6736	241.699	83.2557	241.699	81.4215	241.699	83.1806	241.699	81.2214	241.699	83.0388	241.699	81.0776	241.699	82.8401	241.699	80.9849	241.699	82.5959	241.699	80.9328	241.699	82.3201	241.699	80.9111	241.699	82.0284	241.699	80.9131	241.699	81.7394	241.699	80.9342	241.699	81.4738	241.699	80.9693	241.699	81.2529	241.699	81.01	241.699	81.0942	241.699	81.045	241.699	81.0053	241.699	81.0627	241.699	80.9794	241.699	81.0568	241.699	80.9964	241.699	81.03
250.488	82.7318	250.488	82.4286	250.488	82.9692	250.488	82.0773	250.488	83.1284	250.488	81.6996	250.488	83.2027	250.488	81.3201	250.488	83.1924	250.488	80.9641	250.488	83.1034	250.488	80.6544	250.488	82.9466	250.488	80.4076	250.488	82.736	250.488	80.2314	250.488	82.4877	250.488	80.1256	250.488	82.2188	250.488	80.0839	250.488	81.9454	250.488	80.0967	250.488	81.6805	250.488	80.1516	250.488	81.4313	250.488	80.2339	250.488	81.2016	250.488	80.3264	250.488	80.9967	250.488	80.4125	250.488	80.8257	250.488	80.4803	250.488	80.6984	250.488	80.5281	250.488	80.6161	250.488	80.5665
259.277	82.8668	259.277	82.5756	259.277	83.0922	259.277	82.2412	259.277	83.2376	259.277	81.8931	259.277	83.2962	259.277	81.5644	259.277	83.268	259.277	81.2851	259.277	83.1581	259.277	81.0726	259.277	82.9753	259.277	80.9268	259.277	82.7312	259.277	80.8323	259.277	82.4411	259.277	80.7682	259.277	82.1258	259.277	80.7186	259.277	81.8124	259.277	80.6778	259.277	81.5306	259.277	80.6495	259.277	81.3043	259.277	80.6403	259.277	81.1417	259.277	80.6534	259.277	81.0344	259.277	80.6859	259.277	80.9641	259.277	80.73	259.277	80.9129	259.277	80.7779	259.277	80.8685	259.277	80.8244
268.066	82.7705	268.066	82.4544	268.066	83.0101	268.066	82.077	268.066	83.1634	268.066	81.661	268.066	83.2266	268.066	81.2378	268.066	83.2016	268.066	80.8469	268.066	83.0957	268.066	80.5291	268.066	82.919	268.066	80.3134	268.066	82.6821	268.066	80.2049	268.066	82.3949	268.066	80.1837	268.066	82.0691	268.066	80.2163	268.066	81.7212	268.066	80.2718	268.066	81.3751	268.066	80.3309	268.066	81.0602	268.066	80.386	268.066	80.8045	268.066	80.4349	268.066	80.6256	268.066	80.4756	268.066	80.5251	268.066	80.5033	268.066	80.4884	268.066	80.5133	268.066	80.4907	268.066	80.5058
276.855	82.9845	276.855	82.7001	276.855	83.1798	276.855	82.3356	276.855	83.2818	276.855	81.9059	276.855	83.2916	276.855	81.4341	276.855	83.2157	276.855	80.9531	276.855	83.0658	276.855	80.5041	276.855	82.857	276.855	80.1283	276.855	82.6066	276.855	79.854	276.855	82.3323	276.855	79.6869	276.855	82.0499	276.855	79.6112	276.855	81.7681	276.855	79.6001	276.855	81.4861	276.855	79.6278	276.855	81.1961	276.855	79.6744	276.855	80.8934	276.855	79.7255	276.855	80.5877	276.855	79.7707	276.855	80.3068	276.855	79.8041	276.855	80.0847	276.855	79.8294	276.855	79.9402	276.855	79.8647
287.109	82.5488	287.109	82.3192	287.109	82.7186	287.109	82.039	287.109	82.8205	287.109	81.7188	287.109	82.8489	287.109	81.372	287.109	82.8011	287.109	81.0172	287.109	82.6777	287.109	80.6789	287.109	82.4821	287.109	80.3854	287.109	82.2225	287.109	80.1607	287.109	81.917	287.109	80.0157	287.109	81.5987	287.109	79.9435	287.109	81.3138	287.109	79.9235	287.109	81.104	287.109	79.9318	287.109	80.9797	287.109	79.9509	287.109	80.909	287.109	79.9742	287.109	80.8389	287.109	80.0053	287.109	80.7307	287.109	80.0547	287.109	80.5797	287.109	80.135	287.109	80.4103	287.109	80.2549
297.363	82.8086	297.363	82.5865	297.363	82.9544	297.363	82.3065	297.363	83.0111	297.363	81.9875	297.363	82.9736	297.363	81.6464	297.363	82.845	297.363	81.2958	297.363	82.6344	297.363	80.9466	297.363	82.3525	297.363	80.6126	297.363	82.0088	297.363	80.315	297.363	81.6143	297.363	80.0816	297.363	81.1909	297.363	79.9377	297.363	80.7828	297.363	79.8942	297.363	80.4584	297.363	79.9401	297.363	80.2827	297.363	80.0472	297.363	80.272	297.363	80.1827	297.363	80.375	297.363	80.3202	297.363	80.5081	297.363	80.4437	297.363	80.6054	297.363	80.5446	297.363	80.6397	297.363	80.6144
307.617	82.6465	307.617	82.3405	307.617	82.8628	307.617	81.967	307.617	82.9764	307.617	81.5576	307.617	82.9822	307.617	81.1529	307.617	82.8836	307.617	80.7951	307.617	82.6903	307.617	80.5148	307.617	82.4148	307.617	80.3169	307.617	82.069	307.617	80.1794	307.617	81.6648	307.617	80.0668	307.617	81.2213	307.617	79.9504	307.617	80.7744	307.617	79.8216	307.617	80.3788	307.617	79.6946	307.617	80.0904	307.617	79.5961	307.617	79.9322	307.617	79.5496	307.617	79.878	307.617	79.5614	307.617	79.872	307.617	79.6182	307.617	79.8653	307.617	79.6967	307.617	79.8335	307.617	79.7741
319.336	82.6129	319.336	82.3177	319.336	82.8127	319.336	81.9404	319.336	82.9074	319.336	81.4982	319.336	82.8925	319.336	81.0159	319.336	82.7706	319.336	80.5333	319.336	82.5499	319.336	80.109	319.336	82.2408	319.336	79.8092	319.336	81.8517	319.336	79.6785	319.336	81.3891	319.336	79.7085	319.336	80.863	319.336	79.8394	319.336	80.3017	319.336	79.9938	319.336	79.7698	319.336	80.1117	319.336	79.367	319.336	80.1662	319.336	79.1807	319.336	80.1605	319.336	79.2168	319.336	80.1154	319.336	79.3914	319.336	80.0529	319.336	79.5987	319.336	79.9823	319.336	79.7721	319.336	79.8953
329.59	82.3771	329.59	82.0769	329.59	82.6054	329.59	81.725	329.59	82.7446	329.59	81.3397	329.59	82.7856	329.59	80.9334	329.59	82.7271	329.59	80.515	329.59	82.5729	329.59	80.0993	329.59	82.328	329.59	79.7174	329.59	81.9948	329.59	79.4191	329.59	81.5721	329.59	79.2555	329.59	81.0575	329.59	79.2479	329.59	80.4571	329.59	79.3675	329.59	79.806	329.59	79.5488	329.59	79.1929	329.59	79.7233	329.59	78.7562	329.59	79.8445	329.59	78.6095	329.59	79.8923	329.59	78.742	329.59	79.8643	329.59	79.0281	329.59	79.7628	329.59	79.3344	329.59	79.5865
341.309	82.3954	341.309	82.0799	341.309	82.6069	341.309	81.6751	341.309	82.7096	341.309	81.2048	341.309	82.708	341.309	80.7001	341.309	82.6142	341.309	80.1985	341.309	82.444	341.309	79.7417	341.309	82.2116	341.309	79.371	341.309	81.9251	341.309	79.119	341.309	81.5828	341.309	78.9988	341.309	81.1735	341.309	78.9978	341.309	80.6829	341.309	79.0825	341.309	80.1093	341.309	79.211	341.309	79.4904	341.309	79.3456	341.309	78.9286	341.309	79.4578	341.309	78.5725	341.309	79.5267	341.309	78.5181	341.309	79.5332	341.309	78.715	341.309	79.4566	341.309	79.013	341.309	79.2808
353.027	82.0329	353.027	81.6778	353.027	82.275	353.027	81.2246	353.027	82.4017	353.027	80.7021	353.027	82.419	353.027	80.1491	353.027	82.3371	353.027	79.6053	353.027	82.1676	353.027	79.1017	353.027	81.923	353.027	78.6608	353.027	81.6167	353.027	78.3064	353.027	81.2641	353.027	78.0708	353.027	80.8813	353.027	77.9816	353.027	80.479	353.027	78.0348	353.027	80.0556	353.027	78.1839	353.027	79.5996	353.027	78.3603	353.027	79.1109	353.027	78.5028	353.027	78.6333	353.027	78.5731	353.027	78.2623	353.027	78.5542	353.027	78.0911	353.027	78.4476	353.027	78.1267	353.027	78.2815
366.211	82.1025	366.211	81.863	366.211	82.235	366.211	81.5173	366.211	82.265	366.211	81.0723	366.211	82.2019	366.211	80.5433	366.211	82.0592	366.211	79.9562	366.211	81.8526	366.211	79.3504	366.211	81.5951	366.211	78.7814	366.211	81.2943	366.211	78.3146	366.211	80.9536	366.211	78.0048	366.211	80.5817	366.211	77.8659	366.211	80.1998	366.211	77.8611	366.211	79.8352	366.211	77.9252	366.211	79.4971	366.211	77.9984	366.211	79.1636	366.211	78.0434	366.211	78.8054	366.211	78.0441	366.211	78.4328	366.211	78.0005	366.211	78.1132	366.211	77.9309	366.211	77.924	366.211	77.8815
379.395	82.0212	379.395	81.7248	379.395	82.2339	379.395	81.3624	379.395	82.3471	379.395	80.9528	379.395	82.35	379.395	80.5154	379.395	82.2411	379.395	80.0709	379.395	82.0302	379.395	79.6405	379.395	81.7371	379.395	79.2446	379.395	81.3844	379.395	78.9037	379.395	80.9909	379.395	78.6396	379.395	80.5699	379.395	78.471	379.395	80.1352	379.395	78.4003	379.395	79.7082	379.395	78.404	379.395	79.3196	379.395	78.4397	379.395	79.0017	379.395	78.4686	379.395	78.7729	379.395	78.4736	379.395	78.6277	379.395	78.4617	379.395	78.5416	379.395	78.4522	379.395	78.4896	379.395	78.4601
392.578	81.8301	392.578	81.477	392.578	82.0715	392.578	81.0277	392.578	82.1951	392.578	80.5125	392.578	82.2016	392.578	79.977	392.578	82.0983	392.578	79.4746	392.578	81.8991	392.578	79.0508	392.578	81.6214	392.578	78.7299	392.578	81.2798	392.578	78.5149	392.578	80.8835	392.578	78.3982	392.578	80.4407	392.578	78.3711	392.578	79.9681	392.578	78.4206	392.578	79.4957	392.578	78.5248	392.578	79.0632	392.578	78.6527	392.578	78.7109	392.578	78.7714	392.578	78.474	392.578	78.8523	392.578	78.3777	392.578	78.8739	392.578	78.4184	392.578	78.8238	392.578	78.5511	392.578	78.7061
405.762	81.7162	405.762	81.4201	405.762	81.8853	405.762	81.0157	405.762	81.9189	405.762	80.5265	405.762	81.826	405.762	79.9787	405.762	81.6377	405.762	79.4027	405.762	81.3995	405.762	78.8354	405.762	81.151	405.762	78.3269	405.762	80.9028	405.762	77.9404	405.762	80.6308	405.762	77.7329	405.762	80.2977	405.762	77.7184	405.762	79.8878	405.762	77.85	405.762	79.4278	405.762	78.0446	405.762	78.9718	405.762	78.2235	405.762	78.5617	405.762	78.3346	405.762	78.21	405.762	78.3528	405.762	77.9341	405.762	78.2746	405.762	77.7812	405.762	78.1177	405.762	77.7892	405.762	77.9291
420.41	81.9433	420.41	81.6251	420.41	82.0728	420.41	81.121	420.41	82.0289	420.41	80.459	420.41	81.8455	420.41	79.7057	420.41	81.5752	420.41	78.9704	420.41	81.2817	420.41	78.3747	420.41	81.0183	420.41	77.9861	420.41	80.8023	420.41	77.7843	420.41	80.6069	420.41	77.7108	420.41	80.384	420.41	77.732	420.41	80.0996	420.41	77.8447	420.41	79.7571	420.41	78.0359	420.41	79.3908	420.41	78.2556	420.41	79.0377	420.41	78.4326	420.41	78.7164	420.41	78.5089	420.41	78.4377	420.41	78.4669	420.41	78.233	420.41	78.339	420.41	78.1497	420.41	78.2026
435.059	82.0724	435.059	81.8438	435.059	82.0997	435.059	81.4013	435.059	81.939	435.059	80.7313	435.059	81.6175	435.059	79.8297	435.059	81.1937	435.059	78.7313	435.059	80.7656	435.059	77.5645	435.059	80.4468	435.059	76.5992	435.059	80.3051	435.059	76.1478	435.059	80.3152	435.059	76.2791	435.059	80.3829	435.059	76.7585	435.059	80.4169	435.059	77.3204	435.059	80.3744	435.059	77.8244	435.059	80.2602	435.059	78.2264	435.059	80.1018	435.059	78.5246	435.059	79.9249	435.059	78.7358	435.059	79.7422	435.059	78.8917	435.059	79.5553	435.059	79.0323	435.059	79.3668	435.059	79.1884
451.172	83.2538	451.172	83.0354	451.172	83.2804	451.172	82.6345	451.172	83.0927	451.172	82.0436	451.172	82.6705	451.172	81.2431	451.172	82.0216	451.172	80.2089	451.172	81.2061	451.172	78.9249	451.172	80.3454	451.172	77.4073	451.172	79.6	451.172	75.771	451.172	79.1079	451.172	74.3673	451.172	78.9143	451.172	73.8023	451.172	78.9628	451.172	74.3419	451.172	79.1432	451.172	75.5092	451.172	79.3364	451.172	76.7541	451.172	79.4516	451.172	77.8269	451.172	79.4698	451.172	78.6591	451.172	79.4587	451.172	79.2392	451.172	79.5061	451.172	79.5693	451.172	79.6112	451.172	79.671
465.82	83.2278	465.82	83.0468	465.82	83.2348	465.82	82.7144	465.82	83.0377	465.82	82.2377	465.82	82.6192	465.82	81.6129	465.82	81.9964	465.82	80.835	465.82	81.2278	465.82	79.91	465.82	80.3972	465.82	78.8645	465.82	79.5884	465.82	77.7525	465.82	78.8681	465.82	76.664	465.82	78.2918	465.82	75.7424	465.82	77.9291	465.82	75.1913	465.82	77.8651	465.82	75.1881	465.82	78.1082	465.82	75.7121	465.82	78.5059	465.82	76.5254	465.82	78.8386	465.82	77.3532	465.82	78.9805	465.82	78.0161	465.82	78.9511	465.82	78.4516	465.82	78.8428	465.82	78.6964
483.398	83.1291	483.398	82.9804	483.398	83.0972	483.398	82.6773	483.398	82.8699	483.398	82.2481	483.398	82.4542	483.398	81.713	483.398	81.884	483.398	81.0722	483.398	81.2145	483.398	80.3036	483.398	80.5116	483.398	79.3837	483.398	79.8431	483.398	78.332	483.398	79.2602	483.398	77.2543	483.398	78.772	483.398	76.3391	483.398	78.3682	483.398	75.7583	483.398	78.0888	483.398	75.5562	483.398	78.0313	483.398	75.6758	483.398	78.2139	483.398	76.0424	483.398	78.48	483.398	76.5669	483.398	78.6282	483.398	77.1304	483.398	78.5727	483.398	77.6308	483.398	78.3524	483.398	78.0337
499.512	82.9369	499.512	82.6856	499.512	83.0383	499.512	82.3158	499.512	82.9481	499.512	81.8393	499.512	82.6351	499.512	81.2566	499.512	82.0984	499.512	80.5713	499.512	81.3741	499.512	79.7934	499.512	80.5339	499.512	78.9331	499.512	79.6783	499.512	78.0059	499.512	78.9139	499.512	77.0651	499.512	78.3017	499.512	76.2406	499.512	77.8296	499.512	75.7232	499.512	77.4958	499.512	75.6395	499.512	77.4166	499.512	75.9325	499.512	77.7204	499.512	76.431	499.512	78.2827	499.512	76.9946	499.512	78.7845	499.512	77.5566	499.512	79.0011	499.512	78.0889	499.512	78.8979	499.512	78.5589
517.09	83.4142	517.09	83.1037	517.09	83.5225	517.09	82.6243	517.09	83.4174	517.09	82.0233	517.09	83.1148	517.09	81.3561	517.09	82.6501	517.09	80.6752	517.09	82.06	517.09	80.0153	517.09	81.3713	517.09	79.3787	517.09	80.6143	517.09	78.7364	517.09	79.8467	517.09	78.0534	517.09	79.1502	517.09	77.3303	517.09	78.5718	517.09	76.6295	517.09	78.0595	517.09	76.0702	517.09	77.5285	517.09	75.7936	517.09	77.0694	517.09	75.9007	517.09	77.0049	517.09	76.3748	517.09	77.4455	517.09	77.0594	517.09	78.013	517.09	77.7335	517.09	78.3081	517.09	78.1973
536.133	83.1777	536.133	82.8031	536.133	83.2975	536.133	82.2211	536.133	83.1341	536.133	81.4886	536.133	82.6977	536.133	80.6776	536.133	82.0485	536.133	79.8821	536.133	81.2799	536.133	79.205	536.133	80.488	536.133	78.7095	536.133	79.7606	536.133	78.363	536.133	79.1743	536.133	78.0486	536.133	78.7643	536.133	77.6727	536.133	78.4977	536.133	77.2772	536.133	78.2882	536.133	77.0398	536.133	78.042	536.133	77.1179	536.133	77.7359	536.133	77.4817	536.133	77.4939	536.133	77.9491	536.133	77.5177	536.133	78.3389	536.133	77.8352	536.133	78.5411	536.133	78.2374	536.133	78.5056
555.176	83.2887	555.176	82.9603	555.176	83.3691	555.176	82.4052	555.176	83.1872	555.176	81.6497	555.176	82.7605	555.176	80.7425	555.176	82.1479	555.176	79.7532	555.176	81.4104	555.176	78.7337	555.176	80.563	555.176	77.6913	555.176	79.596	555.176	76.6494	555.176	78.5638	555.176	75.7628	555.176	77.6732	555.176	75.2782	555.176	77.2418	555.176	75.261	555.176	77.3562	555.176	75.5224	555.176	77.6594	555.176	75.8681	555.176	77.7475	555.176	76.2367	555.176	77.5566	555.176	76.638	555.176	77.3463	555.176	77.0432	555.176	77.3462	555.176	77.3627	555.176	77.4709	555.176	77.5106
574.219	83.2702	574.219	82.874	574.219	83.4103	574.219	82.2679	574.219	83.287	574.219	81.5199	574.219	82.9261	574.219	80.6984	574.219	82.364	574.219	79.8532	574.219	81.6295	574.219	78.9982	574.219	80.7514	574.219	78.1058	574.219	79.7862	574.219	77.1385	574.219	78.8369	574.219	76.1162	574.219	78.0197	574.219	75.1573	574.219	77.3967	574.219	74.4513	574.219	76.9761	574.219	74.1821	574.219	76.7868	574.219	74.425	574.219	76.8675	574.219	75.0669	574.219	77.1567	574.219	75.8632	574.219	77.4882	574.219	76.5968	574.219	77.704	574.219	77.1621	574.219	77.7237	574.219	77.5385
594.727	83.0737	594.727	82.7455	594.727	83.1441	594.727	82.201	594.727	82.9352	594.727	81.4773	594.727	82.4593	594.727	80.592	594.727	81.7621	594.727	79.5642	594.727	80.9032	594.727	78.469	594.727	79.9471	594.727	77.4516	594.727	78.996	594.727	76.6187	594.727	78.2015	594.727	75.9038	594.727	77.6503	594.727	75.1545	594.727	77.2397	594.727	74.3927	594.727	76.798	594.727	73.9561	594.727	76.3868	594.727	74.219	594.727	76.354	594.727	75.0729	594.727	76.814	594.727	76.0871	594.727	77.4294	594.727	76.9696	594.727	77.8933	594.727	77.618	594.727	78.0933	594.727	77.9999
615.234	82.9792	615.234	82.5941	615.234	83.0546	615.234	81.9266	615.234	82.8074	615.234	81.053	615.234	82.2462	615.234	80.109	615.234	81.4337	615.234	79.2173	615.234	80.4603	615.234	78.3938	615.234	79.3666	615.234	77.5895	615.234	78.1797	615.234	76.8378	615.234	77.0374	615.234	76.2897	615.234	76.1643	615.234	76.018	615.234	75.7027	615.234	75.8801	615.234	75.6467	615.234	75.7213	615.234	75.8544	615.234	75.5952	615.234	76.0538	615.234	75.7103	615.234	76.0363	615.234	76.151	615.234	75.9422	615.234	76.7181	615.234	76.1566	615.234	77.1031	615.234	76.6828	615.234	77.0942
637.207	82.7338	637.207	82.3326	637.207	82.8388	637.207	81.6853	637.207	82.6307	637.207	80.8367	637.207	82.1815	637.207	79.8592	637.207	81.5973	637.207	78.8827	637.207	80.8691	637.207	78.0139	637.207	79.8899	637.207	77.2269	637.207	78.6309	637.207	76.4493	637.207	77.2235	637.207	75.7236	637.207	75.9929	637.207	75.0981	637.207	75.4258	637.207	74.4929	637.207	75.523	637.207	73.9468	637.207	75.6063	637.207	73.8396	637.207	75.4455	637.207	74.4603	637.207	75.5747	637.207	75.4219	637.207	76.1173	637.207	76.1879	637.207	76.5298	637.207	76.5748	637.207	76.6569	637.207	76.673
659.18	82.6237	659.18	82.4437	659.18	82.5879	659.18	82.0133	659.18	82.3866	659.18	81.3142	659.18	82.0518	659.18	80.3559	659.18	81.54	659.18	79.2258	659.18	80.7657	659.18	78.1465	659.18	79.733	659.18	77.3201	659.18	78.5912	659.18	76.614	659.18	77.5303	659.18	75.778	659.18	76.6196	659.18	74.9103	659.18	75.8051	659.18	74.2917	659.18	75.2212	659.18	73.8461	659.18	75.1159	659.18	73.375	659.18	75.1186	659.18	73.196	659.18	74.8671	659.18	73.7993	659.18	75.0132	659.18	74.8969	659.18	75.8525	659.18	75.8937	659.18	76.4998	659.18	76.4876
682.617	82.7356	682.617	82.4347	682.617	82.8745	682.617	82.0589	682.617	82.7083	682.617	81.5168	682.617	82.1925	682.617	80.6376	682.617	81.3979	682.617	79.4072	682.617	80.4201	682.617	78.1713	682.617	79.3141	682.617	77.4343	682.617	78.1636	682.617	77.0972	682.617	77.2383	682.617	76.6048	682.617	76.7857	682.617	75.8627	682.617	76.4413	682.617	75.3684	682.617	75.744	682.617	75.3329	682.617	75.3561	682.617	75.3747	682.617	75.9552	682.617	75.4014	682.617	76.2789	682.617	75.7804	682.617	75.9701	682.617	76.5425	682.617	76.3008	682.617	77.2514	682.617	77.1834	682.617	77.5491
707.52	82.9776	707.52	82.5009	707.52	83.2201	707.52	81.8476	707.52	83.1803	707.52	81.1114	707.52	82.7576	707.52	80.371	707.52	81.8927	707.52	79.6684	707.52	80.7415	707.52	79.0328	707.52	79.6049	707.52	78.4756	707.52	78.5988	707.52	77.9213	707.52	77.5135	707.52	77.248	707.52	76.2275	707.52	76.5369	707.52	75.3532	707.52	76.0692	707.52	75.3768	707.52	75.8587	707.52	75.3088	707.52	75.5393	707.52	74.9724	707.52	74.9193	707.52	75.3094	707.52	74.462	707.52	75.8309	707.52	74.8579	707.52	76.1087	707.52	75.806	707.52	76.4357	707.52	76.4518
732.422	82.8713	732.422	82.3411	732.422	83.1046	732.422	81.8319	732.422	82.8532	732.422	81.4458	732.422	82.2151	732.422	80.9466	732.422	81.4588	732.422	80.0859	732.422	80.6199	732.422	78.945	732.422	79.4357	732.422	78.0271	732.422	77.8177	732.422	77.5331	732.422	76.1212	732.422	76.926	732.422	75.0663	732.422	76.0362	732.422	75.0812	732.422	75.3294	732.422	75.4086	732.422	74.9725	732.422	75.2565	732.422	74.6233	732.422	74.6231	732.422	74.1974	732.422	73.7498	732.422	73.9614	732.422	73.2516	732.422	74.0679	732.422	73.8096	732.422	74.4062	732.422	74.5529	732.422	74.701
757.324	82.4269	757.324	82.0018	757.324	82.8644	757.324	81.76	757.324	82.9037	757.324	81.4101	757.324	82.3233	757.324	80.5976	757.324	81.1579	757.324	79.1594	757.324	79.6452	757.324	77.2313	757.324	78.1866	757.324	75.6075	757.324	77.1629	757.324	75.2365	757.324	76.4995	757.324	75.6026	757.324	75.6179	757.324	75.8109	757.324	74.5986	757.324	75.7396	757.324	74.7877	757.324	75.6492	757.324	75.6134	757.324	75.4602	757.324	75.4787	757.324	74.689	757.324	74.3143	757.324	73.4236	757.324	73.579	757.324	72.883	757.324	74.6819	757.324	73.925	757.324	75.7351	757.324	75.3663
785.156	83.0239	785.156	82.0664	785.156	83.2583	785.156	81.0101	785.156	82.6069	785.156	80.8238	785.156	81.2852	785.156	81.4228	785.156	79.9534	785.156	81.6801	785.156	79.2142	785.156	80.9786	785.156	78.8648	785.156	79.3147	785.156	78.5059	785.156	76.8886	785.156	78.2145	785.156	73.9836	785.156	77.8687	785.156	71.6584	785.156	76.4933	785.156	71.8416	785.156	72.7461	785.156	73.5116	785.156	64.6161	785.156	75.2699	785.156	67.2355	785.156	76.848	785.156	72.6844	785.156	77.4604	785.156	74.1041	785.156	76.6079	785.156	72.0954	785.156	74.2306	785.156	67.4367	785.156	69.9739
811.523	83.6571	811.523	83.3864	811.523	82.7901	811.523	81.8606	811.523	81.5126	811.523	79.8594	811.523	81.0963	811.523	79.644	811.523	81.4051	811.523	80.7811	811.523	81.1973	811.523	81.207	811.523	80.0165	811.523	80.6234	811.523	78.1531	811.523	79.541	811.523	76.6778	811.523	78.625	811.523	76.7825	811.523	78.0365	811.523	77.488	811.523	77.28	811.523	77.3548	811.523	76.0924	811.523	76.294	811.523	75.048	811.523	74.8057	811.523	74.5441	811.523	72.7671	811.523	74.3873	811.523	71.7361	811.523	75.1762	811.523	74.0636	811.523	76.6452	811.523	76.4273	811.523	77.2946
840.82	83.2762	840.82	83.6482	840.82	83.2185	840.82	83.5595	840.82	83.5129	840.82	82.6683	840.82	83.2305	840.82	81.1578	840.82	81.9403	840.82	79.4469	840.82	80.159	840.82	77.683	840.82	78.8066	840.82	75.9617	840.82	77.774	840.82	75.2228	840.82	76.2082	840.82	75.4788	840.82	74.5609	840.82	75.4658	840.82	73.7816	840.82	74.9679	840.82	72.7444	840.82	74.679	840.82	73.6714	840.82	74.9169	840.82	75.9109	840.82	75.0077	840.82	76.3983	840.82	74.6825	840.82	76.2452	840.82	74.7202	840.82	75.938	840.82	74.8521	840.82	74.9115	840.82	74.5105
870.117	83.4565	870.117	84.2999	870.117	82.6751	870.117	84.0961	870.117	82.6221	870.117	82.3178	870.117	82.7647	870.117	79.4493	870.117	82.5278	870.117	78.7567	870.117	81.6356	870.117	80.2866	870.117	80.1599	870.117	80.8425	870.117	78.5186	870.117	80.026	870.117	76.9646	870.117	78.1139	870.117	76.2176	870.117	75.9944	870.117	77.2121	870.117	75.1164	870.117	77.94	870.117	75.4101	870.117	76.7817	870.117	75.9276	870.117	73.7972	870.117	76.2579	870.117	70.9227	870.117	76.1214	870.117	73.8622	870.117	75.2677	870.117	76.7293	870.117	73.9465	870.117	76.4561	870.117	74.3347
900.879	83.85	900.879	83.0568	900.879	84.2909	900.879	82.8328	900.879	83.8696	900.879	82.8141	900.879	82.8652	900.879	81.7836	900.879	81.6069	900.879	78.9219	900.879	79.9198	900.879	75.4179	900.879	77.7484	900.879	76.7439	900.879	75.6164	900.879	78.4918	900.879	73.812	900.879	78.2527	900.879	71.4681	900.879	77.2219	900.879	66.3376	900.879	76.7459	900.879	68.8196	900.879	76.5645	900.879	74.1351	900.879	76.119	900.879	75.6872	900.879	75.475	900.879	74.8129	900.879	74.508	900.879	72.4613	900.879	73.4876	900.879	74.1247	900.879	73.698	900.879	76.2494	900.879	75.5457
933.105	84.0972	933.105	84.0304	933.105	83.4283	933.105	83.2134	933.105	82.3107	933.105	82.0395	933.105	81.1971	933.105	80.9482	933.105	80.4287	933.105	79.7186	933.105	79.8311	933.105	77.8496	933.105	79.0654	933.105	75.1618	933.105	78.2528	933.105	71.6169	933.105	78.0309	933.105	69.2452	933.105	77.9901	933.105	69.7619	933.105	76.9639	933.105	69.5794	933.105	75.3713	933.105	70.1439	933.105	73.7953	933.105	72.1951	933.105	72.2362	933.105	73.1037	933.105	73.9073	933.105	72.2127	933.105	74.3091	933.105	71.3802	933.105	72.8155	933.105	72.2266	933.105	73.316	933.105	73.4459
965.332	83.6542	965.332	83.6949	965.332	82.8783	965.332	82.8913	965.332	82.0976	965.332	81.5351	965.332	81.68	965.332	80.3561	965.332	80.8385	965.332	79.6162	965.332	79.4262	965.332	78.571	965.332	78.1715	965.332	77.2324	965.332	76.6537	965.332	76.6133	965.332	73.505	965.332	76.4633	965.332	71.0624	965.332	76.2354	965.332	71.7966	965.332	76.0039	965.332	72.8638	965.332	75.5269	965.332	75.3935	965.332	75.1353	965.332	75.8811	965.332	74.1589	965.332	72.7743	965.332	71.7319	965.332	67.7421	965.332	70.3942	965.332	71.0681	965.332	72.7687	965.332	74.4053	965.332	74.8053
1,000.49	83.0295	1,000.49	83.8097	1,000.49	82.191	1,000.49	83.5365	1,000.49	82.2313	1,000.49	82.0031	1,000.49	82.0115	1,000.49	79.8529	1,000.49	80.302	1,000.49	78.965	1,000.49	77.2291	1,000.49	79.0463	1,000.49	74.0767	1,000.49	78.28	1,000.49	72.1818	1,000.49	76.0821	1,000.49	71.0692	1,000.49	73.3033	1,000.49	68.154	1,000.49	72.7757	1,000.49	65.0894	1,000.49	73.6248	1,000.49	68.4202	1,000.49	74.0406	1,000.49	71.2473	1,000.49	74.3607	1,000.49	72.1428	1,000.49	74.603	1,000.49	70.2985	1,000.49	74.3207	1,000.49	66.3246	1,000.49	73.3753	1,000.49	69.1825	1,000.49	71.7548	1,000.49	71.3796	1,000.49	71.0271
1,035.64	82.5924	1,035.64	83.7526	1,035.64	81.9558	1,035.64	84.0691	1,035.64	82.0338	1,035.64	82.9793	1,035.64	81.6332	1,035.64	80.7839	1,035.64	80.3838	1,035.64	78.3022	1,035.64	79.1725	1,035.64	76.8318	1,035.64	79.1278	1,035.64	76.8619	1,035.64	79.1482	1,035.64	76.2861	1,035.64	77.8872	1,035.64	74.2073	1,035.64	75.5717	1,035.64	74.3495	1,035.64	72.7937	1,035.64	76.8902	1,035.64	66.6807	1,035.64	77.3705	1,035.64	64.429	1,035.64	76.3746	1,035.64	73.8635	1,035.64	75.1425	1,035.64	76.4391	1,035.64	72.5724	1,035.64	74.6433	1,035.64	70.227	1,035.64	67.846	1,035.64	72.043	1,035.64	72.4488	1,035.64	74.2644
1,072.27	83.215	1,072.27	83.804	1,072.27	82.066	1,072.27	83.3261	1,072.27	81.5977	1,072.27	82.0495	1,072.27	81.0455	1,072.27	80.5969	1,072.27	79.1812	1,072.27	79.5087	1,072.27	77.1078	1,072.27	78.7089	1,072.27	76.2686	1,072.27	77.8569	1,072.27	76.2014	1,072.27	76.7424	1,072.27	76.3259	1,072.27	75.093	1,072.27	76.1623	1,072.27	72.9338	1,072.27	75.396	1,072.27	71.1189	1,072.27	72.1817	1,072.27	72.263	1,072.27	69.5077	1,072.27	74.1081	1,072.27	72.1355	1,072.27	73.6523	1,072.27	72.2445	1,072.27	72.4432	1,072.27	71.9653	1,072.27	71.8624	1,072.27	68.8706	1,072.27	72.2625	1,072.27	70.002	1,072.27	72.5508
1,108.89	82.4374	1,108.89	83.4292	1,108.89	82.1568	1,108.89	83.515	1,108.89	82.5478	1,108.89	82.0296	1,108.89	81.3262	1,108.89	79.8642	1,108.89	78.382	1,108.89	79.2963	1,108.89	77.6059	1,108.89	79.4718	1,108.89	78.4692	1,108.89	78.912	1,108.89	78.6854	1,108.89	78.6663	1,108.89	78.2112	1,108.89	78.5043	1,108.89	77.1399	1,108.89	77.1672	1,108.89	76.1472	1,108.89	75.747	1,108.89	75.0445	1,108.89	74.6305	1,108.89	69.2622	1,108.89	73.856	1,108.89	67.897	1,108.89	71.6689	1,108.89	74.5168	1,108.89	68.6277	1,108.89	75.8625	1,108.89	70.8684	1,108.89	72.8591	1,108.89	74.1372	1,108.89	69.4938	1,108.89	74.5415
1,148.44	80.9724	1,148.44	82.4321	1,148.44	82.6135	1,148.44	83.8991	1,148.44	82.7769	1,148.44	82.6125	1,148.44	79.7109	1,148.44	78.6854	1,148.44	78.8439	1,148.44	76.8645	1,148.44	80.5528	1,148.44	78.8271	1,148.44	79.7801	1,148.44	79.9907	1,148.44	77.639	1,148.44	79.7785	1,148.44	75.73	1,148.44	77.8984	1,148.44	74.4256	1,148.44	75.6154	1,148.44	73.1906	1,148.44	74.1753	1,148.44	73.2041	1,148.44	71.1218	1,148.44	73.6281	1,148.44	68.4293	1,148.44	72.9689	1,148.44	70.149	1,148.44	72.827	1,148.44	71.4614	1,148.44	73.3269	1,148.44	71.7651	1,148.44	73.8199	1,148.44	72.1825	1,148.44	70.4301	1,148.44	70.2137
1,189.45	82.4366	1,189.45	81.7053	1,189.45	82.4007	1,189.45	81.8243	1,189.45	81.2727	1,189.45	81.8457	1,189.45	80.7929	1,189.45	80.1745	1,189.45	80.9385	1,189.45	76.8101	1,189.45	80.0187	1,189.45	74.5313	1,189.45	78.1308	1,189.45	76.6564	1,189.45	76.0161	1,189.45	77.653	1,189.45	73.3135	1,189.45	76.4218	1,189.45	71.613	1,189.45	75.1131	1,189.45	71.831	1,189.45	75.7153	1,189.45	71.2977	1,189.45	75.6431	1,189.45	71.0742	1,189.45	72.9893	1,189.45	66.8545	1,189.45	69.7943	1,189.45	72.3867	1,189.45	69.5155	1,189.45	73.4147	1,189.45	70.252	1,189.45	72.2462	1,189.45	70.3628	1,189.45	70.8015	1,189.45	69.2191
1,230.47	82.1279	1,230.47	82.0919	1,230.47	82.2282	1,230.47	82.2197	1,230.47	81.548	1,230.47	81.4998	1,230.47	80.7623	1,230.47	79.9404	1,230.47	80.9481	1,230.47	78.3548	1,230.47	80.3544	1,230.47	76.1246	1,230.47	78.6021	1,230.47	74.6731	1,230.47	76.0711	1,230.47	76.1586	1,230.47	72.2487	1,230.47	75.1024	1,230.47	68.5474	1,230.47	73.1685	1,230.47	66.4598	1,230.47	73.9163	1,230.47	66.4902	1,230.47	73.3664	1,230.47	71.782	1,230.47	72.6166	1,230.47	72.7505	1,230.47	72.3754	1,230.47	70.4424	1,230.47	71.1832	1,230.47	72.2384	1,230.47	69.9085	1,230.47	70.5029	1,230.47	70.2376	1,230.47	70.5907	1,230.47	71.0886
1,274.41	82.4774	1,274.41	82.4344	1,274.41	82.2128	1,274.41	81.4981	1,274.41	82.0816	1,274.41	80.1313	1,274.41	81.2912	1,274.41	78.8161	1,274.41	80.5549	1,274.41	77.7017	1,274.41	79.482	1,274.41	76.4926	1,274.41	76.6793	1,274.41	73.5096	1,274.41	74.4137	1,274.41	71.2342	1,274.41	74.8018	1,274.41	72.6747	1,274.41	74.6607	1,274.41	71.0319	1,274.41	72.2505	1,274.41	68.0101	1,274.41	67.4514	1,274.41	71.3819	1,274.41	66.5869	1,274.41	71.9222	1,274.41	71.2346	1,274.41	71.8016	1,274.41	69.3899	1,274.41	72.8828	1,274.41	68.5208	1,274.41	71.8182	1,274.41	70.897	1,274.41	69.0352	1,274.41	70.4548	1,274.41	66.8014
1,319.82	82.9793	1,319.82	81.9488	1,319.82	83.0547	1,319.82	82.0714	1,319.82	81.5546	1,319.82	81.3455	1,319.82	81.3267	1,319.82	78.3015	1,319.82	81.4736	1,319.82	76.326	1,319.82	79.4365	1,319.82	76.7751	1,319.82	76.6469	1,319.82	74.6804	1,319.82	74.4243	1,319.82	71.4146	1,319.82	73.6467	1,319.82	70.8271	1,319.82	73.9202	1,319.82	71.2215	1,319.82	74.6854	1,319.82	67.5928	1,319.82	73.1889	1,319.82	64.2884	1,319.82	65.9942	1,319.82	69.9066	1,319.82	66.7425	1,319.82	72.9703	1,319.82	71.6546	1,319.82	72.1845	1,319.82	70.8792	1,319.82	69.7789	1,319.82	68.6409	1,319.82	69.8156	1,319.82	70.7216	1,319.82	69.9226
1,366.7	83.2302	1,366.7	83.4367	1,366.7	82.699	1,366.7	82.5834	1,366.7	82.2579	1,366.7	80.9396	1,366.7	82.2582	1,366.7	79.8472	1,366.7	81.555	1,366.7	78.5981	1,366.7	79.8507	1,366.7	76.0301	1,366.7	78.0095	1,366.7	72.2612	1,366.7	75.2455	1,366.7	70.0453	1,366.7	74.3958	1,366.7	72.4882	1,366.7	74.5146	1,366.7	69.718	1,366.7	73.8253	1,366.7	62.2614	1,366.7	74.151	1,366.7	61.7431	1,366.7	71.4192	1,366.7	66.3869	1,366.7	68.7755	1,366.7	71.6325	1,366.7	71.4424	1,366.7	73.1196	1,366.7	69.8014	1,366.7	69.9353	1,366.7	67.8722	1,366.7	66.8974	1,366.7	68.9033	1,366.7	68.2609
1,413.57	83.355	1,413.57	83.5393	1,413.57	82.6646	1,413.57	82.1188	1,413.57	82.648	1,413.57	80.1292	1,413.57	82.7253	1,413.57	79.0696	1,413.57	82.0233	1,413.57	77.9262	1,413.57	79.8097	1,413.57	75.5998	1,413.57	77.1278	1,413.57	71.9522	1,413.57	74.5854	1,413.57	68.9184	1,413.57	73.7941	1,413.57	69.5034	1,413.57	72.4716	1,413.57	69.4303	1,413.57	71.1465	1,413.57	66.0724	1,413.57	73.1372	1,413.57	57.7872	1,413.57	72.6226	1,413.57	60.1164	1,413.57	67.0497	1,413.57	72.0559	1,413.57	71.1458	1,413.57	74.5681	1,413.57	74.4065	1,413.57	69.2055	1,413.57	67.5471	1,413.57	61.0467	1,413.57	71.1198	1,413.57	67.4831
1,463.38	82.878	1,463.38	82.8298	1,463.38	82.8616	1,463.38	81.4383	1,463.38	83.2903	1,463.38	79.9966	1,463.38	82.8957	1,463.38	79.3746	1,463.38	81.7993	1,463.38	77.2644	1,463.38	80.036	1,463.38	75.4184	1,463.38	77.1051	1,463.38	76.4784	1,463.38	74.2348	1,463.38	73.5135	1,463.38	72.4122	1,463.38	67.1746	1,463.38	71.0963	1,463.38	67.6975	1,463.38	69.1552	1,463.38	68.5864	1,463.38	67.606	1,463.38	67.8092	1,463.38	71.3854	1,463.38	62.6933	1,463.38	67.3113	1,463.38	72.4864	1,463.38	67.7435	1,463.38	73.3854	1,463.38	73.612	1,463.38	65.9198	1,463.38	70.7829	1,463.38	63.6417	1,463.38	67.117	1,463.38	68.2418
1,516.11	82.2605	1,516.11	81.762	1,516.11	82.5158	1,516.11	81.0846	1,516.11	82.2311	1,516.11	80.1719	1,516.11	82.4841	1,516.11	78.6579	1,516.11	82.2946	1,516.11	76.2864	1,516.11	80.5977	1,516.11	75.8837	1,516.11	78.5387	1,516.11	77.1375	1,516.11	76.2164	1,516.11	74.2509	1,516.11	75.0866	1,516.11	68.1796	1,516.11	72.7593	1,516.11	69.9893	1,516.11	71.1484	1,516.11	72.7414	1,516.11	71.4089	1,516.11	71.5217	1,516.11	69.1317	1,516.11	69.7348	1,516.11	70.957	1,516.11	71.9628	1,516.11	68.1211	1,516.11	72.4287	1,516.11	70.1868	1,516.11	66.1808	1,516.11	70.6846	1,516.11	59.3716	1,516.11	65.2501	1,516.11	64.996
1,568.85	81.6588	1,568.85	80.1203	1,568.85	82.1226	1,568.85	80.2655	1,568.85	82.2008	1,568.85	81.1446	1,568.85	82.1744	1,568.85	80.0206	1,568.85	80.9394	1,568.85	78.2346	1,568.85	80.8607	1,568.85	76.9377	1,568.85	78.5457	1,568.85	74.6312	1,568.85	75.8121	1,568.85	69.9936	1,568.85	74.0553	1,568.85	66.7986	1,568.85	70.2539	1,568.85	65.3754	1,568.85	71.8232	1,568.85	68.9607	1,568.85	72.8116	1,568.85	70.6657	1,568.85	73.3326	1,568.85	71.1116	1,568.85	71.6491	1,568.85	72.2132	1,568.85	69.2942	1,568.85	73.4914	1,568.85	65.5371	1,568.85	67.7772	1,568.85	70.0087	1,568.85	66.4284	1,568.85	57.087	1,568.85	65.7086
1,624.51	82.0061	1,624.51	81.206	1,624.51	82.8712	1,624.51	80.6594	1,624.51	82.8825	1,624.51	81.5273	1,624.51	82.14	1,624.51	81.6132	1,624.51	80.8806	1,624.51	79.2206	1,624.51	80.0067	1,624.51	76.3336	1,624.51	79.2012	1,624.51	74.5784	1,624.51	75.562	1,624.51	70.6768	1,624.51	73.8832	1,624.51	68.5045	1,624.51	73.2709	1,624.51	66.0417	1,624.51	69.0603	1,624.51	66.4785	1,624.51	71.2352	1,624.51	66.8249	1,624.51	73.3113	1,624.51	71.3723	1,624.51	70.6967	1,624.51	71.2578	1,624.51	66.7353	1,624.51	73.0632	1,624.51	64.5813	1,624.51	70.6366	1,624.51	70.3761	1,624.51	67.5428	1,624.51	65.4219	1,624.51	55.6457
1,681.64	82.7652	1,681.64	81.0813	1,681.64	83.9665	1,681.64	81.5711	1,681.64	82.8572	1,681.64	80.4995	1,681.64	83.1715	1,681.64	80.1047	1,681.64	80.827	1,681.64	80.5914	1,681.64	78.1983	1,681.64	78.9161	1,681.64	78.1953	1,681.64	71.3033	1,681.64	77.7778	1,681.64	62.5278	1,681.64	74.7975	1,681.64	67.8357	1,681.64	73.4067	1,681.64	68.415	1,681.64	72.3158	1,681.64	67.5164	1,681.64	72.7756	1,681.64	70.3607	1,681.64	72.5489	1,681.64	71.6121	1,681.64	70.2188	1,681.64	70.0093	1,681.64	69.3961	1,681.64	69.6976	1,681.64	68.1347	1,681.64	69.1988	1,681.64	67.2732	1,681.64	66.1522	1,681.64	67.8659	1,681.64	64.0549
1,741.7	82.9303	1,741.7	81.9346	1,741.7	84.5656	1,741.7	80.7375	1,741.7	84.5499	1,741.7	80.1152	1,741.7	82.4332	1,741.7	79.1455	1,741.7	81.5096	1,741.7	75.6597	1,741.7	80.5896	1,741.7	75.9722	1,741.7	77.3352	1,741.7	74.4301	1,741.7	74.8319	1,741.7	69.9655	1,741.7	70.8098	1,741.7	67.5621	1,741.7	72.3846	1,741.7	71.3979	1,741.7	70.4859	1,741.7	70.46	1,741.7	65.997	1,741.7	71.8594	1,741.7	72.521	1,741.7	69.6085	1,741.7	69.0605	1,741.7	67.2139	1,741.7	62.6654	1,741.7	70.639	1,741.7	64.9397	1,741.7	71.6978	1,741.7	68.8797	1,741.7	62.9229	1,741.7	70.3975	1,741.7	61.6317
1,803.22	83.6939	1,803.22	82.1303	1,803.22	84.9688	1,803.22	80.3322	1,803.22	85.0835	1,803.22	78.1833	1,803.22	83.2668	1,803.22	78.6477	1,803.22	80.521	1,803.22	78.4414	1,803.22	77.2931	1,803.22	74.3707	1,803.22	76.5322	1,803.22	71.0248	1,803.22	71.7815	1,803.22	72.4714	1,803.22	64.4529	1,803.22	65.0013	1,803.22	71.6246	1,803.22	71.3902	1,803.22	70.3535	1,803.22	70.1559	1,803.22	66.0324	1,803.22	68.449	1,803.22	68.4721	1,803.22	72.4538	1,803.22	68.2719	1,803.22	71.46	1,803.22	67.8758	1,803.22	68.0789	1,803.22	65.1382	1,803.22	66.161	1,803.22	69.0777	1,803.22	66.3371	1,803.22	69.2381	1,803.22	62.8562
1,866.21	83.5535	1,866.21	82.6168	1,866.21	84.1584	1,866.21	80.6405	1,866.21	84.7241	1,866.21	78.3587	1,866.21	83.3458	1,866.21	77.7786	1,866.21	79.9209	1,866.21	78.3816	1,866.21	77.8611	1,866.21	77.8998	1,866.21	74.6686	1,866.21	72.733	1,866.21	65.1144	1,866.21	74.1897	1,866.21	56.2617	1,866.21	65.954	1,866.21	64.9441	1,866.21	67.8361	1,866.21	68.9737	1,866.21	71.3175	1,866.21	70.3602	1,866.21	72.9052	1,866.21	69.316	1,866.21	67.592	1,866.21	70.1032	1,866.21	69.176	1,866.21	69.2668	1,866.21	68.8039	1,866.21	64.1951	1,866.21	71.3087	1,866.21	69.9256	1,866.21	66.0812	1,866.21	70.5477	1,866.21	68.728
1,932.13	83.0535	1,932.13	81.3226	1,932.13	84.1057	1,932.13	79.5642	1,932.13	84.2594	1,932.13	78.7318	1,932.13	82.6655	1,932.13	78.2134	1,932.13	81.154	1,932.13	77.5066	1,932.13	78.0302	1,932.13	77.5019	1,932.13	75.5226	1,932.13	76.0744	1,932.13	71.2257	1,932.13	72.2961	1,932.13	66.5657	1,932.13	70.6355	1,932.13	64.6964	1,932.13	68.7644	1,932.13	57.2983	1,932.13	67.1917	1,932.13	64.3102	1,932.13	71.0962	1,932.13	67.3471	1,932.13	69.5506	1,932.13	70.1343	1,932.13	68.1982	1,932.13	66.1725	1,932.13	69.9052	1,932.13	66.478	1,932.13	67.2905	1,932.13	68.4787	1,932.13	65.8634	1,932.13	69.1713	1,932.13	66.8306
1,999.51	83.0977	1,999.51	80.2394	1,999.51	84.1708	1,999.51	78.7344	1,999.51	83.3368	1,999.51	79.052	1,999.51	81.986	1,999.51	78.3721	1,999.51	80.5062	1,999.51	77.6719	1,999.51	77.7246	1,999.51	77.4369	1,999.51	75.9627	1,999.51	74.1963	1,999.51	73.3541	1,999.51	71.4718	1,999.51	68.2928	1,999.51	69.9036	1,999.51	64.7019	1,999.51	65.3863	1,999.51	57.6588	1,999.51	66.6909	1,999.51	57.9538	1,999.51	70.0472	1,999.51	66.8464	1,999.51	70.3308	1,999.51	69.0928	1,999.51	68.3341	1,999.51	68.9828	1,999.51	66.9557	1,999.51	66.1674	1,999.51	67.187	1,999.51	68.9111	1,999.51	63.3885	1,999.51	70.1533	1,999.51	65.7553
2,069.82	83.685	2,069.82	79.1074	2,069.82	84.751	2,069.82	75.9415	2,069.82	83.298	2,069.82	77.8213	2,069.82	81.0079	2,069.82	78.4166	2,069.82	78.1702	2,069.82	77.3955	2,069.82	75.5815	2,069.82	75.8662	2,069.82	75.2223	2,069.82	74.1858	2,069.82	72.9446	2,069.82	73.0902	2,069.82	66.2658	2,069.82	73.2459	2,069.82	67.7344	2,069.82	72.1327	2,069.82	66.1685	2,069.82	64.2024	2,069.82	63.5652	2,069.82	69.9048	2,069.82	57.0384	2,069.82	69.3204	2,069.82	63.4467	2,069.82	68.582	2,069.82	65.7592	2,069.82	66.611	2,069.82	64.1989	2,069.82	64.255	2,069.82	70.4771	2,069.82	59.4602	2,069.82	70.9317	2,069.82	66.7618
2,143.07	83.7348	2,143.07	79.6358	2,143.07	85.2989	2,143.07	74.9035	2,143.07	83.7878	2,143.07	76.4602	2,143.07	79.6619	2,143.07	77.2386	2,143.07	75.56	2,143.07	76.08	2,143.07	72.6972	2,143.07	75.8855	2,143.07	73.8615	2,143.07	73.9042	2,143.07	72.3613	2,143.07	68.6423	2,143.07	64.5117	2,143.07	66.1875	2,143.07	66.9756	2,143.07	67.8175	2,143.07	69.5495	2,143.07	69.3453	2,143.07	65.4681	2,143.07	66.3877	2,143.07	60.9971	2,143.07	69.7991	2,143.07	55.8638	2,143.07	64.8897	2,143.07	61.8614	2,143.07	66.4203	2,143.07	62.0976	2,143.07	62.6184	2,143.07	69.3373	2,143.07	57.6637	2,143.07	71.2609	2,143.07	68.1611
2,219.24	83.3834	2,219.24	79.9068	2,219.24	85.2346	2,219.24	74.7786	2,219.24	84.0328	2,219.24	73.9895	2,219.24	79.2122	2,219.24	76.1792	2,219.24	72.1975	2,219.24	77.3466	2,219.24	71.6199	2,219.24	76.9411	2,219.24	74.9302	2,219.24	75.2416	2,219.24	75.0228	2,219.24	74.2015	2,219.24	65.3913	2,219.24	70.5719	2,219.24	60.9946	2,219.24	68.2841	2,219.24	71.1045	2,219.24	68.2452	2,219.24	68.922	2,219.24	66.3765	2,219.24	65.0414	2,219.24	71.3068	2,219.24	56.7532	2,219.24	69.9271	2,219.24	61.6551	2,219.24	64.9674	2,219.24	58.3155	2,219.24	63.8397	2,219.24	68.9105	2,219.24	53.8271	2,219.24	70.5842	2,219.24	64.9064
2,296.88	81.8899	2,296.88	78.7685	2,296.88	84.1386	2,296.88	73.8051	2,296.88	83.1195	2,296.88	70.9983	2,296.88	77.6097	2,296.88	74.8106	2,296.88	69.4575	2,296.88	78.8506	2,296.88	73.5605	2,296.88	78.6839	2,296.88	78.012	2,296.88	77.3218	2,296.88	76.5462	2,296.88	73.9148	2,296.88	73.1151	2,296.88	70.0404	2,296.88	63.7454	2,296.88	69.9605	2,296.88	70.8716	2,296.88	70.0276	2,296.88	72.4262	2,296.88	68.7412	2,296.88	70.8633	2,296.88	69.6296	2,296.88	69.4099	2,296.88	69.2179	2,296.88	60.4582	2,296.88	66.1071	2,296.88	57.5628	2,296.88	61.9544	2,296.88	65.3398	2,296.88	61.5176	2,296.88	69.2596	2,296.88	66.6676
2,378.91	81.0665	2,378.91	75.4293	2,378.91	82.6148	2,378.91	65.1026	2,378.91	81.371	2,378.91	71.8791	2,378.91	74.464	2,378.91	76.7616	2,378.91	67.4785	2,378.91	78.1929	2,378.91	74.8584	2,378.91	77.7904	2,378.91	78.3755	2,378.91	74.9273	2,378.91	79.0629	2,378.91	73.8096	2,378.91	77.0219	2,378.91	72.9279	2,378.91	69.2659	2,378.91	69.2684	2,378.91	50.9689	2,378.91	69.5217	2,378.91	67.2919	2,378.91	70.5855	2,378.91	70.5231	2,378.91	69.2827	2,378.91	71.3297	2,378.91	70.2602	2,378.91	68.6417	2,378.91	63.696	2,378.91	63.8102	2,378.91	65.9297	2,378.91	62.3392	2,378.91	62.821	2,378.91	68.3137	2,378.91	68.6621
2,462.4	81.3358	2,462.4	75.9796	2,462.4	82.3154	2,462.4	59.85	2,462.4	80.2554	2,462.4	73.3217	2,462.4	73.5745	2,462.4	77.414	2,462.4	69.0559	2,462.4	77.1275	2,462.4	74.9997	2,462.4	75.9296	2,462.4	77.2933	2,462.4	76.0894	2,462.4	77.7328	2,462.4	72.9508	2,462.4	73.5725	2,462.4	67.8657	2,462.4	65.7644	2,462.4	68.3763	2,462.4	68.5105	2,462.4	67.0938	2,462.4	69.3887	2,462.4	69.4657	2,462.4	69.7226	2,462.4	68.9863	2,462.4	70.9257	2,462.4	70.7437	2,462.4	67.2447	2,462.4	62.7551	2,462.4	65.1545	2,462.4	65.347	2,462.4	63.572	2,462.4	55.3687	2,462.4	69.3493	2,462.4	65.3159
2,548.83	80.8733	2,548.83	75.9462	2,548.83	81.9924	2,548.83	55.0519	2,548.83	80.2214	2,548.83	75.2495	2,548.83	74.4816	2,548.83	77.6484	2,548.83	69.8032	2,548.83	76.585	2,548.83	74.0298	2,548.83	76.4055	2,548.83	75.7874	2,548.83	74.6138	2,548.83	74.3577	2,548.83	74.3183	2,548.83	74.2624	2,548.83	72.1812	2,548.83	65.0707	2,548.83	66.7494	2,548.83	70.1214	2,548.83	63.7594	2,548.83	71.5522	2,548.83	68.6297	2,548.83	68.8685	2,548.83	69.1363	2,548.83	70.564	2,548.83	69.4678	2,548.83	64.8767	2,548.83	65.1855	2,548.83	65.2175	2,548.83	64.2224	2,548.83	63.0693	2,548.83	55.6986	2,548.83	69.7036	2,548.83	67.2562
2,639.65	79.1152	2,639.65	73.8335	2,639.65	80.577	2,639.65	64.1696	2,639.65	80.3301	2,639.65	75.2648	2,639.65	75.0866	2,639.65	77.4737	2,639.65	68.1247	2,639.65	78.5321	2,639.65	74.0198	2,639.65	77.1858	2,639.65	74.855	2,639.65	74.4291	2,639.65	75.3674	2,639.65	69.7432	2,639.65	73.0578	2,639.65	69.0771	2,639.65	66.5093	2,639.65	66.2367	2,639.65	68.1933	2,639.65	68.519	2,639.65	65.8201	2,639.65	65.2551	2,639.65	66.9514	2,639.65	69.0499	2,639.65	67.4934	2,639.65	68.5939	2,639.65	64.9928	2,639.65	65.2567	2,639.65	63.4585	2,639.65	63.936	2,639.65	65.2527	2,639.65	44.7227	2,639.65	68.3107	2,639.65	64.6064
2,731.93	77.7187	2,731.93	70.9525	2,731.93	78.5631	2,731.93	69.1132	2,731.93	78.8437	2,731.93	75.5583	2,731.93	73.5366	2,731.93	78.9826	2,731.93	63.8548	2,731.93	78.6761	2,731.93	74.8609	2,731.93	76.7235	2,731.93	76.6549	2,731.93	72.83	2,731.93	75.9131	2,731.93	71.0823	2,731.93	72.8996	2,731.93	69.1372	2,731.93	69.0823	2,731.93	67.4736	2,731.93	67.6895	2,731.93	62.9928	2,731.93	62.4205	2,731.93	66.6618	2,731.93	63.7747	2,731.93	64.4296	2,731.93	65.7002	2,731.93	68.2675	2,731.93	63.5412	2,731.93	63.9681	2,731.93	55.4402	2,731.93	63.8408	2,731.93	64.198	2,731.93	45.2175	2,731.93	67.4368	2,731.93	65.9154
2,828.61	77.2074	2,828.61	72.418	2,828.61	79.1463	2,828.61	69.9301	2,828.61	78.3	2,828.61	76.8287	2,828.61	72.7847	2,828.61	78.8217	2,828.61	67.4401	2,828.61	78.6892	2,828.61	76.2025	2,828.61	75.0536	2,828.61	77.5219	2,828.61	72.5233	2,828.61	77.366	2,828.61	70.059	2,828.61	73.4001	2,828.61	65.8938	2,828.61	71.1824	2,828.61	59.7399	2,828.61	63.7523	2,828.61	62.251	2,828.61	56.5001	2,828.61	58.874	2,828.61	67.1166	2,828.61	65.072	2,828.61	62.9221	2,828.61	65.711	2,828.61	60.2941	2,828.61	64.698	2,828.61	59.5343	2,828.61	62.2602	2,828.61	63.4677	2,828.61	54.9977	2,828.61	67.6177	2,828.61	66.7778
2,928.22	79.457	2,928.22	75.8713	2,928.22	80.5266	2,928.22	74.9631	2,928.22	78.4198	2,928.22	78.4614	2,928.22	73.7441	2,928.22	79.0528	2,928.22	69.9075	2,928.22	78.4995	2,928.22	76.2631	2,928.22	75.4255	2,928.22	77.9429	2,928.22	74.1828	2,928.22	77.552	2,928.22	66.286	2,928.22	71.8173	2,928.22	64.3353	2,928.22	74.8308	2,928.22	65.4996	2,928.22	61.0467	2,928.22	64.42	2,928.22	63.7412	2,928.22	62.5903	2,928.22	67.4922	2,928.22	63.9029	2,928.22	61.4522	2,928.22	64.595	2,928.22	57.3096	2,928.22	64.4579	2,928.22	54.202	2,928.22	60.6159	2,928.22	65.7277	2,928.22	59.2338	2,928.22	68.6877	2,928.22	66.3794
3,030.76	80.4928	3,030.76	77.7746	3,030.76	81.014	3,030.76	78.3751	3,030.76	78.4593	3,030.76	79.041	3,030.76	73.5208	3,030.76	80.1607	3,030.76	72.0415	3,030.76	77.9571	3,030.76	77.5183	3,030.76	76.0559	3,030.76	77.5792	3,030.76	71.0364	3,030.76	77.6532	3,030.76	72.5044	3,030.76	73.6439	3,030.76	70.09	3,030.76	75.367	3,030.76	67.4086	3,030.76	67.7458	3,030.76	63.7256	3,030.76	67.4464	3,030.76	62.7001	3,030.76	63.6163	3,030.76	66.4513	3,030.76	67.9762	3,030.76	63.9572	3,030.76	60.9391	3,030.76	65.0174	3,030.76	56.3498	3,030.76	61.0228	3,030.76	65.0387	3,030.76	62.3901	3,030.76	68.0088	3,030.76	66.7012
3,137.7	81.3207	3,137.7	80.3744	3,137.7	82.1507	3,137.7	79.8516	3,137.7	80.4808	3,137.7	80.9611	3,137.7	75.1293	3,137.7	80.5818	3,137.7	75.1302	3,137.7	78.4533	3,137.7	79.0083	3,137.7	74.5481	3,137.7	76.7526	3,137.7	74.9594	3,137.7	78.0878	3,137.7	74.1194	3,137.7	76.891	3,137.7	64.9427	3,137.7	73.2583	3,137.7	66.9447	3,137.7	71.2339	3,137.7	66.0703	3,137.7	66.4031	3,137.7	66.4268	3,137.7	48.9747	3,137.7	66.4988	3,137.7	67.8415	3,137.7	65.0973	3,137.7	60.7148	3,137.7	64.6772	3,137.7	55.993	3,137.7	56.365	3,137.7	65.8976	3,137.7	62.9	3,137.7	69.1008	3,137.7	66.6328
3,249.02	81.7594	3,249.02	81.3547	3,249.02	82.0824	3,249.02	80.8184	3,249.02	81.8114	3,249.02	82.354	3,249.02	79.7884	3,249.02	80.6642	3,249.02	76.6209	3,249.02	79.6861	3,249.02	79.0762	3,249.02	79.2496	3,249.02	78.7717	3,249.02	77.3913	3,249.02	79.9901	3,249.02	70.9594	3,249.02	80.4115	3,249.02	71.3399	3,249.02	73.7148	3,249.02	68.6587	3,249.02	69.3334	3,249.02	70.245	3,249.02	64.5875	3,249.02	67.6911	3,249.02	60.404	3,249.02	67.7505	3,249.02	68.5381	3,249.02	67.5766	3,249.02	56.3562	3,249.02	66.0601	3,249.02	57.4347	3,249.02	59.8574	3,249.02	68.0288	3,249.02	65.6439	3,249.02	69.759	3,249.02	64.0906
3,363.28	82.7472	3,363.28	81.8558	3,363.28	81.874	3,363.28	81.4043	3,363.28	81.856	3,363.28	81.6153	3,363.28	81.0001	3,363.28	80.9648	3,363.28	78.2327	3,363.28	80.2125	3,363.28	78.7794	3,363.28	79.1973	3,363.28	81.2184	3,363.28	73.509	3,363.28	81.8445	3,363.28	74.5015	3,363.28	80.7685	3,363.28	69.8663	3,363.28	72.8906	3,363.28	64.1744	3,363.28	65.3186	3,363.28	63.2958	3,363.28	40.8697	3,363.28	66.6568	3,363.28	66.3407	3,363.28	66.5272	3,363.28	68.1217	3,363.28	67.9323	3,363.28	61.7956	3,363.28	64.6691	3,363.28	56.3775	3,363.28	54.1929	3,363.28	67.5332	3,363.28	64.5982	3,363.28	69.7279	3,363.28	68.1571
3,481.93	84.1892	3,481.93	82.3609	3,481.93	82.4523	3,481.93	83.4673	3,481.93	82.1094	3,481.93	81.2354	3,481.93	81.7583	3,481.93	81.9695	3,481.93	78.5977	3,481.93	81.6637	3,481.93	76.8885	3,481.93	78.2677	3,481.93	82.0163	3,481.93	75.1972	3,481.93	80.8158	3,481.93	72.2817	3,481.93	79.318	3,481.93	66.3652	3,481.93	70.2316	3,481.93	69.3052	3,481.93	67.3056	3,481.93	65.246	3,481.93	63.8256	3,481.93	68.0314	3,481.93	66.1519	3,481.93	65.2569	3,481.93	66.5803	3,481.93	69.8772	3,481.93	61.4683	3,481.93	63.9406	3,481.93	59.9778	3,481.93	61.3005	3,481.93	69.3946	3,481.93	65.0063	3,481.93	68.115	3,481.93	67.9865
3,604.98	84.2871	3,604.98	83.7501	3,604.98	82.8576	3,604.98	84.2528	3,604.98	82.029	3,604.98	82.1217	3,604.98	82.7033	3,604.98	82.9749	3,604.98	78.2938	3,604.98	80.8967	3,604.98	79.2248	3,604.98	77.2764	3,604.98	82.6241	3,604.98	73.4312	3,604.98	81.1861	3,604.98	72.8814	3,604.98	76.3955	3,604.98	70.3066	3,604.98	63.6918	3,604.98	67.1298	3,604.98	66.4539	3,604.98	66.853	3,604.98	67.1403	3,604.98	66.2693	3,604.98	67.2975	3,604.98	68.2423	3,604.98	62.5572	3,604.98	69.3164	3,604.98	59.9008	3,604.98	64.4608	3,604.98	59.344	3,604.98	63.4685	3,604.98	68.2877	3,604.98	62.4215	3,604.98	69.1036	3,604.98	65.8635
3,732.42	84.4564	3,732.42	84.5962	3,732.42	83.5053	3,732.42	83.6409	3,732.42	80.7002	3,732.42	82.7396	3,732.42	82.2547	3,732.42	82.7517	3,732.42	80.304	3,732.42	80.2472	3,732.42	78.7835	3,732.42	76.6347	3,732.42	81.2109	3,732.42	75.558	3,732.42	78.882	3,732.42	74.3043	3,732.42	74.1235	3,732.42	71.3552	3,732.42	69.4919	3,732.42	67.9823	3,732.42	60.0452	3,732.42	69.1051	3,732.42	68.5987	3,732.42	64.5658	3,732.42	66.122	3,732.42	67.084	3,732.42	60.3663	3,732.42	67.7023	3,732.42	65.188	3,732.42	66.1935	3,732.42	61.361	3,732.42	62.4553	3,732.42	67.5193	3,732.42	59.8484	3,732.42	69.9921	3,732.42	66.5019
3,864.26	83.7648	3,864.26	84.9646	3,864.26	84.1604	3,864.26	82.0482	3,864.26	82.5376	3,864.26	82.5782	3,864.26	81.7387	3,864.26	81.9425	3,864.26	80.1426	3,864.26	79.2858	3,864.26	79.6065	3,864.26	76.9715	3,864.26	80.8166	3,864.26	76.5269	3,864.26	77.6977	3,864.26	70.6187	3,864.26	74.2785	3,864.26	68.1761	3,864.26	67.9923	3,864.26	62.6198	3,864.26	56.0016	3,864.26	66.7823	3,864.26	64.4194	3,864.26	67.7182	3,864.26	66.5544	3,864.26	66.7773	3,864.26	50.3698	3,864.26	65.9993	3,864.26	65.1775	3,864.26	64.3937	3,864.26	60.5956	3,864.26	56.0465	3,864.26	69.4895	3,864.26	59.9452	3,864.26	68.931	3,864.26	67.4642
4,000.49	82.9149	4,000.49	83.9295	4,000.49	82.5145	4,000.49	81.5318	4,000.49	82.832	4,000.49	82.7047	4,000.49	82.617	4,000.49	79.9235	4,000.49	79.684	4,000.49	78.2421	4,000.49	79.25	4,000.49	75.9639	4,000.49	80.7341	4,000.49	71.956	4,000.49	78.2954	4,000.49	71.436	4,000.49	73.487	4,000.49	67.7566	4,000.49	71.2678	4,000.49	66.3805	4,000.49	63.2927	4,000.49	63.3307	4,000.49	65.2512	4,000.49	64.9804	4,000.49	62.8583	4,000.49	66.0802	4,000.49	58.1127	4,000.49	63.2737	4,000.49	64.1987	4,000.49	62.3467	4,000.49	63.782	4,000.49	48.664	4,000.49	67.6777	4,000.49	56.8457	4,000.49	65.2462	4,000.49	67.5361
4,141.11	83.2734	4,141.11	82.7235	4,141.11	81.0684	4,141.11	81.968	4,141.11	80.9439	4,141.11	81.4088	4,141.11	83.1512	4,141.11	76.5633	4,141.11	79.0107	4,141.11	77.9669	4,141.11	78.6316	4,141.11	72.9622	4,141.11	78.9685	4,141.11	72.0608	4,141.11	75.1113	4,141.11	68.4809	4,141.11	73.9879	4,141.11	64.9428	4,141.11	76.3015	4,141.11	64.0367	4,141.11	63.6868	4,141.11	62.9152	4,141.11	69.1538	4,141.11	64.8987	4,141.11	66.0925	4,141.11	64.0029	4,141.11	58.9063	4,141.11	65.4097	4,141.11	64.279	4,141.11	63.4411	4,141.11	62.288	4,141.11	56.5484	4,141.11	66.6175	4,141.11	47.4602	4,141.11	63.3133	4,141.11	65.6345
4,287.6	82.8016	4,287.6	82.786	4,287.6	81.1929	4,287.6	82.0574	4,287.6	79.8322	4,287.6	78.3779	4,287.6	82.7511	4,287.6	80.3857	4,287.6	81.2282	4,287.6	76.996	4,287.6	77.912	4,287.6	75.7515	4,287.6	77.7928	4,287.6	73.7318	4,287.6	73.3952	4,287.6	73.9292	4,287.6	75.6453	4,287.6	72.687	4,287.6	72.9413	4,287.6	65.2371	4,287.6	69.1072	4,287.6	66.9843	4,287.6	67.2759	4,287.6	65.8189	4,287.6	64.8664	4,287.6	65.0029	4,287.6	59.69	4,287.6	67.1295	4,287.6	62.0191	4,287.6	61.5039	4,287.6	63.8977	4,287.6	55.8375	4,287.6	63.5291	4,287.6	53.9916	4,287.6	63.1738	4,287.6	62.8039
4,438.48	83.2335	4,438.48	81.4592	4,438.48	82.3039	4,438.48	82.5702	4,438.48	80.9698	4,438.48	81.4577	4,438.48	81.8646	4,438.48	80.7054	4,438.48	81.5342	4,438.48	77.8203	4,438.48	76.8282	4,438.48	76.954	4,438.48	71.9403	4,438.48	75.3615	4,438.48	75.5014	4,438.48	72.3981	4,438.48	76.3203	4,438.48	62.033	4,438.48	73.8332	4,438.48	66.9429	4,438.48	71.0388	4,438.48	62.195	4,438.48	64.2189	4,438.48	65.6863	4,438.48	63.0098	4,438.48	66.4324	4,438.48	61.1385	4,438.48	66.0942	4,438.48	63.426	4,438.48	63.603	4,438.48	64.2645	4,438.48	59.9485	4,438.48	62.2501	4,438.48	55.4777	4,438.48	66.6418	4,438.48	63.9186
4,595.21	83.5156	4,595.21	83.3937	4,595.21	83.4853	4,595.21	82.6334	4,595.21	82.3401	4,595.21	80.5376	4,595.21	81.6538	4,595.21	80.5237	4,595.21	81.8146	4,595.21	79.2416	4,595.21	75.7125	4,595.21	77.104	4,595.21	73.6289	4,595.21	74.26	4,595.21	77.7699	4,595.21	70.8811	4,595.21	76.3339	4,595.21	70.1181	4,595.21	75.0997	4,595.21	65.2355	4,595.21	70.9734	4,595.21	67.03	4,595.21	59.9597	4,595.21	64.5472	4,595.21	58.1177	4,595.21	63.9523	4,595.21	53.8668	4,595.21	67.1812	4,595.21	58.1573	4,595.21	64.0986	4,595.21	62.9721	4,595.21	57.5814	4,595.21	63.0843	4,595.21	49.4608	4,595.21	67.1089	4,595.21	63.3024
4,756.35	82.9957	4,756.35	84.1665	4,756.35	83.0012	4,756.35	83.7029	4,756.35	82.7354	4,756.35	81.661	4,756.35	82.3972	4,756.35	81.0996	4,756.35	80.9754	4,756.35	78.9959	4,756.35	69.0122	4,756.35	75.8334	4,756.35	77.8074	4,756.35	73.6756	4,756.35	79.2146	4,756.35	71.7971	4,756.35	75.0329	4,756.35	67.4221	4,756.35	73.3587	4,756.35	65.6649	4,756.35	67.4293	4,756.35	64.5421	4,756.35	53.7359	4,756.35	63.8147	4,756.35	55.3864	4,756.35	67.6544	4,756.35	63.3464	4,756.35	65.7883	4,756.35	62.5493	4,756.35	63.1605	4,756.35	62.5348	4,756.35	61.5992	4,756.35	64.7879	4,756.35	51.055	4,756.35	65.5853	4,756.35	60.5753
4,924.8	83.1659	4,924.8	83.3335	4,924.8	83.5238	4,924.8	82.6954	4,924.8	82.2303	4,924.8	81.5731	4,924.8	81.3814	4,924.8	80.0528	4,924.8	80.2409	4,924.8	79.9117	4,924.8	71.634	4,924.8	75.1502	4,924.8	79.8621	4,924.8	74.7939	4,924.8	78.0393	4,924.8	71.6184	4,924.8	73.5386	4,924.8	69.6194	4,924.8	67.3842	4,924.8	65.2976	4,924.8	63.8988	4,924.8	63.9332	4,924.8	43.1536	4,924.8	64.7089	4,924.8	58.605	4,924.8	67.4711	4,924.8	60.8704	4,924.8	66.9139	4,924.8	61.8271	4,924.8	64.6918	4,924.8	65.6338	4,924.8	62.1783	4,924.8	62.4197	4,924.8	49.7245	4,924.8	63.9678	4,924.8	64.5554
5,097.66	82.8379	5,097.66	84.607	5,097.66	84.3618	5,097.66	83.288	5,097.66	83.1454	5,097.66	81.3481	5,097.66	79.5735	5,097.66	81.6325	5,097.66	79.9655	5,097.66	78.9365	5,097.66	75.9321	5,097.66	77.2681	5,097.66	79.0688	5,097.66	76.8113	5,097.66	75.7514	5,097.66	73.0929	5,097.66	72.0766	5,097.66	69.7504	5,097.66	69.9923	5,097.66	65.9185	5,097.66	65.3858	5,097.66	65.552	5,097.66	44.3671	5,097.66	65.4226	5,097.66	59.7121	5,097.66	65.1713	5,097.66	56.6584	5,097.66	67.6691	5,097.66	61.8774	5,097.66	64.9259	5,097.66	66.3591	5,097.66	63.5096	5,097.66	61.3651	5,097.66	40.1102	5,097.66	66.0569	5,097.66	64.1899
5,277.83	82.7758	5,277.83	83.9253	5,277.83	83.119	5,277.83	82.5669	5,277.83	83.019	5,277.83	81.8455	5,277.83	78.212	5,277.83	81.105	5,277.83	80.0082	5,277.83	79.0138	5,277.83	75.4077	5,277.83	78.0045	5,277.83	77.4973	5,277.83	75.6296	5,277.83	71.3193	5,277.83	72.2977	5,277.83	74.6117	5,277.83	67.7309	5,277.83	68.6283	5,277.83	59.4737	5,277.83	66.9719	5,277.83	65.1759	5,277.83	48.27	5,277.83	63.2063	5,277.83	64.0085	5,277.83	66.7895	5,277.83	63.1141	5,277.83	65.3433	5,277.83	60.4077	5,277.83	64.942	5,277.83	67.4239	5,277.83	61.9639	5,277.83	60.2299	5,277.83	52.6874	5,277.83	65.9006	5,277.83	61.7097
5,463.87	83.1954	5,463.87	84.6654	5,463.87	81.7682	5,463.87	81.2865	5,463.87	83.6391	5,463.87	82.136	5,463.87	80.1502	5,463.87	80.8204	5,463.87	78.8495	5,463.87	79.6215	5,463.87	76.21	5,463.87	77.2734	5,463.87	74.2373	5,463.87	74.8341	5,463.87	71.77	5,463.87	69.0738	5,463.87	72.7672	5,463.87	67.1458	5,463.87	72.7911	5,463.87	63.1035	5,463.87	69.5578	5,463.87	61.6459	5,463.87	59.2206	5,463.87	61.8453	5,463.87	61.3716	5,463.87	63.9972	5,463.87	64.4665	5,463.87	62.5336	5,463.87	62.7492	5,463.87	64.1863	5,463.87	65.6105	5,463.87	57.5354	5,463.87	57.5602	5,463.87	39.9489	5,463.87	65.3077	5,463.87	61.9886
5,657.23	83.6236	5,657.23	83.1901	5,657.23	81.3952	5,657.23	81.8602	5,657.23	84.2031	5,657.23	82.1435	5,657.23	80.5502	5,657.23	80.6123	5,657.23	80.4752	5,657.23	79.7037	5,657.23	74.9745	5,657.23	76.012	5,657.23	69.1368	5,657.23	72.1723	5,657.23	73.2854	5,657.23	69.4118	5,657.23	70.0137	5,657.23	65.117	5,657.23	71.5987	5,657.23	61.4969	5,657.23	66.6003	5,657.23	61.3124	5,657.23	51.44	5,657.23	61.425	5,657.23	57.0663	5,657.23	64.3608	5,657.23	59.6503	5,657.23	60.1675	5,657.23	62.0316	5,657.23	64.167	5,657.23	66.2893	5,657.23	59.591	5,657.23	52.0695	5,657.23	58.7684	5,657.23	66.0047	5,657.23	58.636
5,856.45	83.1536	5,856.45	82.7672	5,856.45	81.4001	5,856.45	81.4705	5,856.45	83.2697	5,856.45	81.3563	5,856.45	80.6747	5,856.45	80.0884	5,856.45	79.6534	5,856.45	78.9264	5,856.45	76.2045	5,856.45	74.1806	5,856.45	68.7324	5,856.45	72.4326	5,856.45	75.2711	5,856.45	67.4269	5,856.45	71.9228	5,856.45	66.0546	5,856.45	69.5511	5,856.45	62.2433	5,856.45	57.5122	5,856.45	59.1439	5,856.45	56.1167	5,856.45	62.1654	5,856.45	48.3987	5,856.45	63.8088	5,856.45	61.4365	5,856.45	60.4726	5,856.45	59.0657	5,856.45	62.7532	5,856.45	64.5727	5,856.45	59.7267	5,856.45	58.3945	5,856.45	59.7582	5,856.45	64.4076	5,856.45	57.4359
6,062.99	83.1829	6,062.99	81.4189	6,062.99	80.2103	6,062.99	81.8585	6,062.99	81.1623	6,062.99	80.809	6,062.99	80.451	6,062.99	79.4274	6,062.99	79.2622	6,062.99	78.2345	6,062.99	76.173	6,062.99	73.8257	6,062.99	69.7252	6,062.99	72.2956	6,062.99	75.3023	6,062.99	68.1257	6,062.99	71.8912	6,062.99	64.3777	6,062.99	70.0963	6,062.99	60.6288	6,062.99	64.5534	6,062.99	58.1363	6,062.99	57.6327	6,062.99	61.333	6,062.99	48.4892	6,062.99	62.943	6,062.99	60.7368	6,062.99	61.6191	6,062.99	56.2507	6,062.99	63.5319	6,062.99	63.8297	6,062.99	62.7881	6,062.99	58.0516	6,062.99	59.9315	6,062.99	62.3052	6,062.99	52.8505
6,276.86	82.3306	6,276.86	81.2412	6,276.86	81.9116	6,276.86	81.3947	6,276.86	81.5424	6,276.86	80.0076	6,276.86	78.0625	6,276.86	80.0263	6,276.86	77.8791	6,276.86	76.9574	6,276.86	75.2997	6,276.86	74.2907	6,276.86	70.1839	6,276.86	70.5275	6,276.86	74.8791	6,276.86	67.9342	6,276.86	71.5748	6,276.86	63.0993	6,276.86	70.2836	6,276.86	60.1688	6,276.86	65.7735	6,276.86	59.1284	6,276.86	59.1421	6,276.86	58.8897	6,276.86	54.0084	6,276.86	60.5495	6,276.86	59.513	6,276.86	62.0675	6,276.86	53.1577	6,276.86	62.4614	6,276.86	62.3762	6,276.86	61.2113	6,276.86	49.8594	6,276.86	60.837	6,276.86	62.4868	6,276.86	57.2452
6,498.05	81.6291	6,498.05	80.7914	6,498.05	81.2556	6,498.05	81.0738	6,498.05	82.5724	6,498.05	80.5374	6,498.05	75.9606	6,498.05	79.924	6,498.05	76.9756	6,498.05	76.6173	6,498.05	75.9801	6,498.05	72.8347	6,498.05	70.3664	6,498.05	70.3958	6,498.05	74.7348	6,498.05	67.3081	6,498.05	68.4822	6,498.05	64.8133	6,498.05	68.1704	6,498.05	58.3564	6,498.05	65.9187	6,498.05	59.2138	6,498.05	56.9829	6,498.05	61.097	6,498.05	51.9572	6,498.05	62.4218	6,498.05	58.5363	6,498.05	60.679	6,498.05	56.0977	6,498.05	61.9922	6,498.05	58.5165	6,498.05	64.1483	6,498.05	53.4582	6,498.05	60.1031	6,498.05	59.6521	6,498.05	58.089
6,726.56	81.762	6,726.56	81.2751	6,726.56	80.5252	6,726.56	80.8053	6,726.56	81.1358	6,726.56	81.05	6,726.56	78.7957	6,726.56	79.5352	6,726.56	77.6375	6,726.56	77.0278	6,726.56	76.486	6,726.56	74.0977	6,726.56	71.7344	6,726.56	72.2997	6,726.56	71.9407	6,726.56	69.5532	6,726.56	60.6889	6,726.56	64.8244	6,726.56	63.4698	6,726.56	61.8668	6,726.56	62.4718	6,726.56	59.1854	6,726.56	50.4055	6,726.56	62.7259	6,726.56	50.5189	6,726.56	63.6757	6,726.56	53.6849	6,726.56	60.0379	6,726.56	56.3158	6,726.56	63.4119	6,726.56	55.7977	6,726.56	63.8613	6,726.56	58.906	6,726.56	57.9784	6,726.56	59.1672	6,726.56	58.9706
6,963.87	81.6975	6,963.87	81.0983	6,963.87	81.2377	6,963.87	81.4519	6,963.87	80.5226	6,963.87	81.0658	6,963.87	80.6115	6,963.87	79.6692	6,963.87	78.0292	6,963.87	77.2976	6,963.87	76.517	6,963.87	74.8418	6,963.87	72.2352	6,963.87	72.8963	6,963.87	67.7972	6,963.87	68.0294	6,963.87	66.0413	6,963.87	62.3037	6,963.87	58.0734	6,963.87	60.3603	6,963.87	59.1378	6,963.87	56.7565	6,963.87	41.82	6,963.87	59.4486	6,963.87	41.6203	6,963.87	61.8375	6,963.87	56.9462	6,963.87	59.4102	6,963.87	59.5551	6,963.87	62.9899	6,963.87	58.6326	6,963.87	62.7067	6,963.87	56.1972	6,963.87	59.0906	6,963.87	60.8447	6,963.87	58.5005
7,209.96	82.0053	7,209.96	81.8007	7,209.96	82.2049	7,209.96	81.7569	7,209.96	80.7823	7,209.96	80.8171	7,209.96	80.4086	7,209.96	80.0095	7,209.96	77.0483	7,209.96	77.5635	7,209.96	76.6562	7,209.96	75.1396	7,209.96	70.202	7,209.96	70.9374	7,209.96	65.4476	7,209.96	68.3986	7,209.96	67.3882	7,209.96	64.211	7,209.96	61.6987	7,209.96	61.0423	7,209.96	57.9052	7,209.96	52.1259	7,209.96	49.9427	7,209.96	60.3313	7,209.96	56.4165	7,209.96	60.6174	7,209.96	55.9783	7,209.96	57.5234	7,209.96	53.6358	7,209.96	62.5464	7,209.96	59.9426	7,209.96	63.2763	7,209.96	55.0833	7,209.96	60.8451	7,209.96	60.4185	7,209.96	58.1646
7,464.84	82.1549	7,464.84	81.9018	7,464.84	82.4264	7,464.84	81.9473	7,464.84	80.4889	7,464.84	80.5923	7,464.84	79.5115	7,464.84	80.0159	7,464.84	76.395	7,464.84	76.6377	7,464.84	77.0495	7,464.84	74.3863	7,464.84	68.4823	7,464.84	71.0425	7,464.84	69.5005	7,464.84	65.3986	7,464.84	65.111	7,464.84	63.8	7,464.84	65.2329	7,464.84	57.8612	7,464.84	54.266	7,464.84	54.9928	7,464.84	53.4725	7,464.84	60.7265	7,464.84	50.4244	7,464.84	60.416	7,464.84	57.3208	7,464.84	55.8067	7,464.84	53.0331	7,464.84	62.2776	7,464.84	57.7181	7,464.84	62.4164	7,464.84	57.0616	7,464.84	61.3253	7,464.84	60.0945	7,464.84	54.5878
7,727.05	82.3222	7,727.05	82.5983	7,727.05	82.1371	7,727.05	81.7604	7,727.05	81.1069	7,727.05	80.2317	7,727.05	78.9756	7,727.05	79.3997	7,727.05	77.4572	7,727.05	75.829	7,727.05	76.9745	7,727.05	74.1432	7,727.05	66.5676	7,727.05	69.9011	7,727.05	68.2334	7,727.05	66.5056	7,727.05	59.1586	7,727.05	61.3248	7,727.05	62.8759	7,727.05	51.9776	7,727.05	57.4708	7,727.05	53.3437	7,727.05	52.339	7,727.05	59.3081	7,727.05	53.9179	7,727.05	58.7999	7,727.05	49.6192	7,727.05	56.1089	7,727.05	53.7269	7,727.05	58.8699	7,727.05	56.3902	7,727.05	59.9051	7,727.05	54.6085	7,727.05	60.5906	7,727.05	58.0717	7,727.05	55.5461
7,999.51	83.4762	7,999.51	82.7891	7,999.51	82.4179	7,999.51	81.482	7,999.51	81.4348	7,999.51	80.0136	7,999.51	80.0075	7,999.51	77.7869	7,999.51	76.4189	7,999.51	74.2823	7,999.51	76.3665	7,999.51	71.757	7,999.51	69.1264	7,999.51	66.0561	7,999.51	66.958	7,999.51	58.8319	7,999.51	64.2984	7,999.51	54.3153	7,999.51	62.0287	7,999.51	50.2926	7,999.51	55.5376	7,999.51	52.9415	7,999.51	51.9919	7,999.51	54.0491	7,999.51	54.2205	7,999.51	46.9487	7,999.51	46.9615	7,999.51	48.4672	7,999.51	54.0071	7,999.51	56.9262	7,999.51	56.5939	7,999.51	58.6966	7,999.51	56.8366	7,999.51	59.9717	7,999.51	57.5735	7,999.51	55.6263
8,282.23	82.5111	8,282.23	81.8387	8,282.23	81.3468	8,282.23	81.526	8,282.23	81.8815	8,282.23	77.76	8,282.23	80.2279	8,282.23	76.9238	8,282.23	75.5131	8,282.23	74.0784	8,282.23	73.6997	8,282.23	70.326	8,282.23	68.9983	8,282.23	63.2737	8,282.23	58.5279	8,282.23	61.8739	8,282.23	67.4842	8,282.23	55.8162	8,282.23	48.4684	8,282.23	56.3383	8,282.23	50.6367	8,282.23	53.6486	8,282.23	43.6856	8,282.23	56.247	8,282.23	27.6484	8,282.23	56.0479	8,282.23	53.2814	8,282.23	53.372	8,282.23	55.0254	8,282.23	54.8292	8,282.23	55.1611	8,282.23	60.7491	8,282.23	56.1435	8,282.23	61.7825	8,282.23	55.8507	8,282.23	55.3473
8,573.73	81.2322	8,573.73	80.935	8,573.73	80.9264	8,573.73	79.71	8,573.73	80.0662	8,573.73	77.0332	8,573.73	80.4138	8,573.73	77.3247	8,573.73	76.5464	8,573.73	73.4588	8,573.73	72.9447	8,573.73	69.976	8,573.73	69.1151	8,573.73	65.2982	8,573.73	63.3566	8,573.73	63.1634	8,573.73	69.9076	8,573.73	58.128	8,573.73	60.6433	8,573.73	53.0308	8,573.73	52.6361	8,573.73	50.4912	8,573.73	51.8221	8,573.73	54.7054	8,573.73	50.8424	8,573.73	55.1963	8,573.73	50.681	8,573.73	55.1689	8,573.73	56.7764	8,573.73	56.2492	8,573.73	53.0871	8,573.73	60.5447	8,573.73	51.4817	8,573.73	58.6657	8,573.73	56.42	8,573.73	54.0704
8,876.95	80.7512	8,876.95	81.1698	8,876.95	80.7533	8,876.95	79.0921	8,876.95	81.4084	8,876.95	77.6007	8,876.95	79.2938	8,876.95	77.1227	8,876.95	77.3134	8,876.95	72.6472	8,876.95	73.6397	8,876.95	68.7046	8,876.95	69.7663	8,876.95	66.5196	8,876.95	66.6507	8,876.95	62.5611	8,876.95	67.569	8,876.95	61.1381	8,876.95	51.1752	8,876.95	52.1839	8,876.95	54.7329	8,876.95	49.8817	8,876.95	54.8223	8,876.95	57.2766	8,876.95	53.6301	8,876.95	56.9222	8,876.95	43.2985	8,876.95	57.8473	8,876.95	56.7927	8,876.95	57.0878	8,876.95	47.5595	8,876.95	55.7505	8,876.95	52.3149	8,876.95	58.6084	8,876.95	55.4936	8,876.95	55.8671
9,188.96	81.3384	9,188.96	80.6385	9,188.96	81.0541	9,188.96	79.1181	9,188.96	81.6156	9,188.96	77.4068	9,188.96	79.7814	9,188.96	76.7378	9,188.96	77.9104	9,188.96	71.2538	9,188.96	76.5702	9,188.96	69.5535	9,188.96	68.1805	9,188.96	68.2685	9,188.96	66.8014	9,188.96	64.028	9,188.96	67.1506	9,188.96	61.1077	9,188.96	57.3516	9,188.96	55.2686	9,188.96	40.0014	9,188.96	52.5517	9,188.96	49.79	9,188.96	55.931	9,188.96	50.834	9,188.96	56.1836	9,188.96	51.2165	9,188.96	57.0572	9,188.96	56.3266	9,188.96	53.0239	9,188.96	39.2069	9,188.96	57.4841	9,188.96	51.9365	9,188.96	59.1439	9,188.96	51.7617	9,188.96	53.1307
9,514.16	81.4464	9,514.16	80.7863	9,514.16	80.1286	9,514.16	79.5274	9,514.16	81.1481	9,514.16	77.6666	9,514.16	80.5523	9,514.16	76.6198	9,514.16	78.2535	9,514.16	71.7228	9,514.16	74.8291	9,514.16	71.3604	9,514.16	69.135	9,514.16	68.8347	9,514.16	62.3966	9,514.16	64.2314	9,514.16	64.5955	9,514.16	59.4332	9,514.16	51.9314	9,514.16	52.005	9,514.16	55.5199	9,514.16	51.9154	9,514.16	49.0645	9,514.16	56.0541	9,514.16	37.7781	9,514.16	56.9847	9,514.16	47.3785	9,514.16	56.3312	9,514.16	54.5493	9,514.16	53.7284	9,514.16	45.6757	9,514.16	56.2762	9,514.16	53.785	9,514.16	59.5794	9,514.16	50.0304	9,514.16	53.3781
9,849.61	81.0653	9,849.61	80.7403	9,849.61	80.347	9,849.61	79.1526	9,849.61	80.3871	9,849.61	77.9879	9,849.61	80.5296	9,849.61	75.488	9,849.61	76.1834	9,849.61	73.1915	9,849.61	72.129	9,849.61	71.5058	9,849.61	70.9385	9,849.61	68.8909	9,849.61	62.591	9,849.61	63.6428	9,849.61	62.7624	9,849.61	58.9644	9,849.61	52.4968	9,849.61	53.6883	9,849.61	59.0041	9,849.61	48.8319	9,849.61	50.9665	9,849.61	56.2592	9,849.61	49.1126	9,849.61	55.2932	9,849.61	25.0937	9,849.61	56.2803	9,849.61	56.4507	9,849.61	52.6553	9,849.61	51.3471	9,849.61	55.0455	9,849.61	50.4794	9,849.61	56.4543	9,849.61	49.595	9,849.61	51.774
10,196.8	81.1095	10,196.8	80.3514	10,196.8	79.9329	10,196.8	79.4878	10,196.8	79.95	10,196.8	77.3566	10,196.8	79.091	10,196.8	76.3629	10,196.8	75.6611	10,196.8	73.8863	10,196.8	72.5667	10,196.8	72.4817	10,196.8	71.2053	10,196.8	68.4679	10,196.8	62.4781	10,196.8	63.8314	10,196.8	65.1205	10,196.8	60.0697	10,196.8	55.7748	10,196.8	54.2962	10,196.8	56.6856	10,196.8	50.3189	10,196.8	53.5241	10,196.8	55.5697	10,196.8	49.25	10,196.8	56.6902	10,196.8	41.4661	10,196.8	56.4725	10,196.8	54.0509	10,196.8	50.8728	10,196.8	51.474	10,196.8	56.2849	10,196.8	46.2217	10,196.8	55.0556	10,196.8	51.0609	10,196.8	53.3464
10,555.7	81.023	10,555.7	80.0618	10,555.7	80.3592	10,555.7	79.8121	10,555.7	79.5985	10,555.7	77.2348	10,555.7	77.4566	10,555.7	76.7084	10,555.7	74.7516	10,555.7	74.1249	10,555.7	73.148	10,555.7	72.0129	10,555.7	68.4123	10,555.7	68.0383	10,555.7	63.3155	10,555.7	63.2023	10,555.7	61.0863	10,555.7	57.5306	10,555.7	56.559	10,555.7	50.3764	10,555.7	54.2241	10,555.7	49.5657	10,555.7	53.069	10,555.7	54.8506	10,555.7	44.536	10,555.7	55.4239	10,555.7	45.5321	10,555.7	55.5218	10,555.7	49.1839	10,555.7	50.515	10,555.7	49.8214	10,555.7	55.0104	10,555.7	45.5689	10,555.7	53.7365	10,555.7	43.7743	10,555.7	50.4847
10,927.7	81.3509	10,927.7	80.5264	10,927.7	80.2602	10,927.7	80.1888	10,927.7	79.3212	10,927.7	77.0405	10,927.7	77.391	10,927.7	76.7699	10,927.7	74.8177	10,927.7	73.7521	10,927.7	72.2453	10,927.7	71.3065	10,927.7	66.5405	10,927.7	67.0974	10,927.7	62.2598	10,927.7	62.4346	10,927.7	54.3102	10,927.7	58.0841	10,927.7	58.8605	10,927.7	50.8449	10,927.7	57.5159	10,927.7	50.4789	10,927.7	50.4836	10,927.7	54.187	10,927.7	36.6886	10,927.7	53.8094	10,927.7	41.6222	10,927.7	54.9743	10,927.7	45.7579	10,927.7	50.3996	10,927.7	46.3997	10,927.7	52.1495	10,927.7	42.866	10,927.7	54.0963	10,927.7	35.5023	10,927.7	49.6659
11,313	81.5166	11,313	80.8999	11,313	80.5847	11,313	80.3885	11,313	78.8497	11,313	76.8582	11,313	77.5814	11,313	76.9805	11,313	74.7105	11,313	73.142	11,313	71.67	11,313	70.935	11,313	67.5282	11,313	66.946	11,313	62.0636	11,313	61.3573	11,313	59.8352	11,313	56.8465	11,313	59.8615	11,313	45.4123	11,313	57.6598	11,313	47.8877	11,313	52.6952	11,313	53.214	11,313	38.7455	11,313	53.3918	11,313	29.4209	11,313	54.5166	11,313	43.8747	11,313	50.0148	11,313	36.3174	11,313	51.5805	11,313	45.3457	11,313	50.3658	11,313	47.1899	11,313	47.2285
11,712.9	81.8787	11,712.9	80.9773	11,712.9	80.605	11,712.9	80.2832	11,712.9	78.5965	11,712.9	76.5573	11,712.9	76.2853	11,712.9	76.7704	11,712.9	73.7674	11,712.9	72.3824	11,712.9	71.3376	11,712.9	70.3913	11,712.9	67.8748	11,712.9	65.8393	11,712.9	61.0393	11,712.9	59.2972	11,712.9	59.9101	11,712.9	54.7162	11,712.9	57.2967	11,712.9	48.6708	11,712.9	56.2009	11,712.9	47.2962	11,712.9	53.4848	11,712.9	51.2298	11,712.9	37.2863	11,712.9	50.6896	11,712.9	43.8239	11,712.9	52.8564	11,712.9	44.5804	11,712.9	49.8264	11,712.9	36.2636	11,712.9	49.7068	11,712.9	43.701	11,712.9	50.615	11,712.9	45.3601	11,712.9	45.5628
12,126	82.0067	12,126	81.5034	12,126	81.0917	12,126	80.1003	12,126	78.9754	12,126	77.0031	12,126	76.7332	12,126	76.193	12,126	73.5297	12,126	71.9887	12,126	70.9367	12,126	69.3958	12,126	66.8556	12,126	64.0458	12,126	61.6056	12,126	59.0117	12,126	56.6339	12,126	52.0881	12,126	57.1644	12,126	51.3283	12,126	57.4787	12,126	48.0601	12,126	54.8851	12,126	50.7382	12,126	34.4936	12,126	51.5384	12,126	37.2024	12,126	50.5304	12,126	45.432	12,126	46.5355	12,126	40.185	12,126	48.0947	12,126	27.5489	12,126	49.4156	12,126	45.3434	12,126	43.4167
12,553.7	82.1783	12,553.7	81.9962	12,553.7	81.6711	12,553.7	79.9901	12,553.7	79.6081	12,553.7	77.6166	12,553.7	77.7613	12,553.7	75.3613	12,553.7	74.618	12,553.7	71.4738	12,553.7	70.2567	12,553.7	67.734	12,553.7	66.1659	12,553.7	61.8966	12,553.7	64.2123	12,553.7	56.2958	12,553.7	55.4948	12,553.7	50.3242	12,553.7	59.0628	12,553.7	45.1927	12,553.7	58.5316	12,553.7	42.245	12,553.7	52.8061	12,553.7	46.793	12,553.7	29.4812	12,553.7	47.9836	12,553.7	28.3391	12,553.7	47.6365	12,553.7	29.3402	12,553.7	38.5052	12,553.7	40.932	12,553.7	44.7538	12,553.7	35.9678	12,553.7	44.1625	12,553.7	43.4633	12,553.7	38.512
12,996.1	82.6308	12,996.1	82.4467	12,996.1	81.976	12,996.1	80.0948	12,996.1	79.306	12,996.1	77.6769	12,996.1	77.0546	12,996.1	74.3915	12,996.1	74.4017	12,996.1	70.4266	12,996.1	71.6856	12,996.1	64.5821	12,996.1	66.9008	12,996.1	58.9901	12,996.1	63.439	12,996.1	54.5609	12,996.1	56.349	12,996.1	44.3275	12,996.1	56.8464	12,996.1	33.2549	12,996.1	58.9374	12,996.1	33.7942	12,996.1	51.9984	12,996.1	36.2123	12,996.1	34.9807	12,996.1	46.0104	12,996.1	34.4894	12,996.1	45.7426	12,996.1	39.0287	12,996.1	37.849	12,996.1	37.1345	12,996.1	33.8183	12,996.1	43.1111	12,996.1	38.8516	12,996.1	41.0249	12,996.1	41.5365
13,454.6	82.9588	13,454.6	82.5831	13,454.6	82.0389	13,454.6	80.4709	13,454.6	79.924	13,454.6	76.9707	13,454.6	77.1475	13,454.6	74.0663	13,454.6	74.0539	13,454.6	69.0072	13,454.6	70.1044	13,454.6	64.2604	13,454.6	66.4693	13,454.6	57.056	13,454.6	60.9454	13,454.6	51.2295	13,454.6	59.1558	13,454.6	43.7906	13,454.6	55.6961	13,454.6	35.9607	13,454.6	58.6139	13,454.6	29.1022	13,454.6	51.1445	13,454.6	42.717	13,454.6	38.3331	13,454.6	46.0093	13,454.6	40.7964	13,454.6	45.3129	13,454.6	44.3235	13,454.6	40.2005	13,454.6	42.8539	13,454.6	37.8309	13,454.6	40.3865	13,454.6	31.1814	13,454.6	47.0358	13,454.6	36.4258
13,929.2	83.3801	13,929.2	82.4002	13,929.2	82.1098	13,929.2	80.3879	13,929.2	79.7565	13,929.2	76.3723	13,929.2	76.8965	13,929.2	73.7154	13,929.2	71.994	13,929.2	67.4363	13,929.2	67.9445	13,929.2	63.2684	13,929.2	65.1302	13,929.2	54.9771	13,929.2	58.2122	13,929.2	44.4049	13,929.2	52.0567	13,929.2	42.874	13,929.2	53.9729	13,929.2	38.7145	13,929.2	56.1531	13,929.2	30.5513	13,929.2	49.5746	13,929.2	41.5271	13,929.2	39.8617	13,929.2	42.989	13,929.2	41.6895	13,929.2	42.85	13,929.2	43.2828	13,929.2	38.4314	13,929.2	45.5214	13,929.2	29.7323	13,929.2	41.4381	13,929.2	36.9198	13,929.2	43.9999	13,929.2	34.2429
14,419.9	83.5337	14,419.9	82.436	14,419.9	82.3075	14,419.9	80.305	14,419.9	79.9222	14,419.9	76.1751	14,419.9	75.6522	14,419.9	72.9578	14,419.9	71.0409	14,419.9	65.8592	14,419.9	67.1732	14,419.9	60.3196	14,419.9	60.8709	14,419.9	49.7103	14,419.9	54.7031	14,419.9	37.1365	14,419.9	49.6512	14,419.9	34.9296	14,419.9	50.1602	14,419.9	33.8468	14,419.9	53.0163	14,419.9	19.2337	14,419.9	46.9313	14,419.9	31.8803	14,419.9	32.1667	14,419.9	37.1076	14,419.9	35.0766	14,419.9	36.9389	14,419.9	28.3974	14,419.9	19.8748	14,419.9	38.6478	14,419.9	30.5331	14,419.9	38.1352	14,419.9	31.7289	14,419.9	40.3944	14,419.9	32.3377
14,928.2	83.6018	14,928.2	82.6174	14,928.2	82.4164	14,928.2	80.1782	14,928.2	79.8195	14,928.2	76.0149	14,928.2	75.8343	14,928.2	71.9693	14,928.2	71.4968	14,928.2	64.3183	14,928.2	65.1539	14,928.2	55.8776	14,928.2	59.4041	14,928.2	41.5393	14,928.2	49.7382	14,928.2	32.5666	14,928.2	40.2322	14,928.2	39.3073	14,928.2	40.0745	14,928.2	27.1224	14,928.2	48.1176	14,928.2	29.6191	14,928.2	47.1089	14,928.2	24.3361	14,928.2	24.0652	14,928.2	21.0855	14,928.2	33.4837	14,928.2	31.576	14,928.2	37.0124	14,928.2	33.8763	14,928.2	34.3796	14,928.2	34.8192	14,928.2	36.6103	14,928.2	40.9315	14,928.2	40.5146	14,928.2	36.104
15,455.6	83.6331	15,455.6	82.7634	15,455.6	82.4932	15,455.6	80.2431	15,455.6	79.7907	15,455.6	75.5978	15,455.6	75.1216	15,455.6	70.6452	15,455.6	68.3606	15,455.6	61.0517	15,455.6	61.1874	15,455.6	49.656	15,455.6	54.8975	15,455.6	51.6733	15,455.6	48.5028	15,455.6	48.5791	15,455.6	42.6025	15,455.6	45.3234	15,455.6	48.5072	15,455.6	36.1165	15,455.6	44.9402	15,455.6	33.7148	15,455.6	49.6001	15,455.6	35.2009	15,455.6	26.114	15,455.6	37.1367	15,455.6	35.6097	15,455.6	43.2	15,455.6	30.3297	15,455.6	37.2048	15,455.6	32.4588	15,455.6	37.4349	15,455.6	20.2211	15,455.6	41.8612	15,455.6	27.7161	15,455.6	36.0722
16,000.5	83.812	16,000.5	82.8544	16,000.5	82.517	16,000.5	80.2144	16,000.5	79.4247	16,000.5	74.5272	16,000.5	74.2358	16,000.5	68.8588	16,000.5	64.8054	16,000.5	50.1947	16,000.5	50.4215	16,000.5	54.6109	16,000.5	56.758	16,000.5	57.8195	16,000.5	53.6738	16,000.5	55.0805	16,000.5	52.8521	16,000.5	47.6363	16,000.5	56.6902	16,000.5	41.86	16,000.5	53.1568	16,000.5	36.0863	16,000.5	52.2393	16,000.5	41.0267	16,000.5	36.3487	16,000.5	41.9281	16,000.5	39.4372	16,000.5	46.7118	16,000.5	36.6803	16,000.5	45.2964	16,000.5	28.4009	16,000.5	43.7091	16,000.5	38.9246	16,000.5	45.6566	16,000.5	36.7986	16,000.5	38.9346
16,564.5	83.6662	16,564.5	82.6597	16,564.5	82.3264	16,564.5	79.7776	16,564.5	79.3078	16,564.5	73.6765	16,564.5	73.1823	16,564.5	66.8986	16,564.5	63.0054	16,564.5	48.0855	16,564.5	41.5261	16,564.5	59.8674	16,564.5	60.4491	16,564.5	59.4111	16,564.5	53.8465	16,564.5	55.1049	16,564.5	55.4918	16,564.5	47.844	16,564.5	59.745	16,564.5	42.6324	16,564.5	56.6663	16,564.5	32.7618	16,564.5	52.7106	16,564.5	43.6541	16,564.5	39.6161	16,564.5	44.4383	16,564.5	36.7617	16,564.5	48.3929	16,564.5	39.9728	16,564.5	47.1655	16,564.5	31.4438	16,564.5	45.9787	16,564.5	38.784	16,564.5	47.1835	16,564.5	42.4936	16,564.5	41.2069
17,148.9	83.3754	17,148.9	82.2638	17,148.9	81.8993	17,148.9	79.2956	17,148.9	78.9113	17,148.9	73.2304	17,148.9	73.3096	17,148.9	65.9415	17,148.9	62.1323	17,148.9	48.3337	17,148.9	49.1868	17,148.9	60.4747	17,148.9	57.0404	17,148.9	58.367	17,148.9	56.8327	17,148.9	53.6683	17,148.9	54.5187	17,148.9	49.2395	17,148.9	60.3919	17,148.9	40.7397	17,148.9	57.6348	17,148.9	36.5294	17,148.9	51.8229	17,148.9	42.268	17,148.9	39.3214	17,148.9	43.9583	17,148.9	24.7866	17,148.9	47.9902	17,148.9	35.137	17,148.9	46.1982	17,148.9	20.6882	17,148.9	45.8715	17,148.9	39.8681	17,148.9	45.3807	17,148.9	42.8078	17,148.9	37.5517
17,752.4	82.6327	17,752.4	81.5759	17,752.4	81.2738	17,752.4	78.5693	17,752.4	77.8778	17,752.4	72.1993	17,752.4	71.8926	17,752.4	64.7166	17,752.4	61.4782	17,752.4	44.8425	17,752.4	45.6518	17,752.4	58.3073	17,752.4	57.7529	17,752.4	57.0473	17,752.4	54.4438	17,752.4	52.3601	17,752.4	52.6509	17,752.4	46.8781	17,752.4	59.2418	17,752.4	38.4545	17,752.4	55.6616	17,752.4	33.6711	17,752.4	49.0051	17,752.4	40.6944	17,752.4	29.8163	17,752.4	42.907	17,752.4	30.0817	17,752.4	45.6785	17,752.4	29.4102	17,752.4	44.5468	17,752.4	25.0632	17,752.4	44.1098	17,752.4	37.4435	17,752.4	43.1137	17,752.4	38.2262	17,752.4	39.0735
18,379.4	81.7996	18,379.4	80.4735	18,379.4	80.2667	18,379.4	76.9869	18,379.4	76.5568	18,379.4	70.1265	18,379.4	69.9269	18,379.4	61.4534	18,379.4	58.1974	18,379.4	50.0972	18,379.4	57.1973	18,379.4	55.7465	18,379.4	52.688	18,379.4	55.3005	18,379.4	54.1031	18,379.4	49.2794	18,379.4	47.8047	18,379.4	41.5104	18,379.4	57.1116	18,379.4	32.4901	18,379.4	52.2578	18,379.4	31.8408	18,379.4	46.3084	18,379.4	37.6189	18,379.4	27.3212	18,379.4	37.4122	18,379.4	18.4471	18,379.4	41.0595	18,379.4	26.4668	18,379.4	40.2926	18,379.4	27.227	18,379.4	40.5504	18,379.4	29.8454	18,379.4	35.3674	18,379.4	33.2636	18,379.4	27.7437
19,026.9	80.9488	19,026.9	79.5646	19,026.9	79.349	19,026.9	75.5441	19,026.9	75.2294	19,026.9	67.6018	19,026.9	66.81	19,026.9	56.1851	19,026.9	48.2794	19,026.9	50.1197	19,026.9	56.5342	19,026.9	54.6237	19,026.9	53.3813	19,026.9	49.3871	19,026.9	50.0195	19,026.9	41.3097	19,026.9	47.544	19,026.9	35.6311	19,026.9	53.9388	19,026.9	16.2973	19,026.9	50.6961	19,026.9	36.3269	19,026.9	48.4417	19,026.9	34.1103	19,026.9	27.8482	19,026.9	31.9695	19,026.9	20.5118	19,026.9	35.5361	19,026.9	16.2732	19,026.9	34.4141	19,026.9	29.0231	19,026.9	32.5863	19,026.9	28.6656	19,026.9	29.0572	19,026.9	34.2419	19,026.9	22.3801
19,697.8	79.9057	19,697.8	78.3691	19,697.8	78.2342	19,697.8	73.8074	19,697.8	73.692	19,697.8	65.5059	19,697.8	65.208	19,697.8	51.4094	19,697.8	43.3359	19,697.8	49.6726	19,697.8	56.9007	19,697.8	53.1644	19,697.8	51.9348	19,697.8	45.2676	19,697.8	49.9639	19,697.8	42.8478	19,697.8	45.2829	19,697.8	38.9043	19,697.8	53.392	19,697.8	19.7589	19,697.8	51.1883	19,697.8	37.8547	19,697.8	49.8797	19,697.8	33.2212	19,697.8	21.2769	19,697.8	28.5091	19,697.8	8.40283	19,697.8	33.5105	19,697.8	13.4943	19,697.8	33.8972	19,697.8	24.6782	19,697.8	30.5753	19,697.8	29.3367	19,697.8	26.3755	19,697.8	32.8021	19,697.8	13.6553
19,999.5	79.5434	19,999.5	77.8582	19,999.5	77.8166	19,999.5	72.9374	19,999.5	72.7867	19,999.5	65.0455	19,999.5	64.2065	19,999.5	51.1498	19,999.5	44.0486	19,999.5	50.206	19,999.5	56.9049	19,999.5	52.1787	19,999.5	55.2103	19,999.5	47.1506	19,999.5	51.3736	19,999.5	45.715	19,999.5	47.1573	19,999.5	40.2372	19,999.5	54.4535	19,999.5	36.6136	19,999.5	53.0341	19,999.5	41.7519	19,999.5	51.7434	19,999.5	35.1714	19,999.5	41.4255	19,999.5	42.1634	19,999.5	39.8906	19,999.5	30.5826	19,999.5	44.4866	19,999.5	38.3305	19,999.5	38.1361	19,999.5	43.2208	19,999.5	38.2083	19,999.5	30.659	19,999.5	22.954	19,999.5	35.332
