"Vertical Reflections"					
"Floor Reflection"		"Ceiling Reflection"		"Total Vertical Reflection"	
"Frequency [Hz]"	"Sound Pessure Level [dB]  / [2.83V 1m] "	"Frequency [Hz]"	"Sound Pessure Level [dB]  / [2.83V 1m] "	"Frequency [Hz]"	"Sound Pessure Level [dB]  / [2.83V 1m] "
20.5078	50.9008	20.5078	50.3627	20.5078	50.6401
21.2402	53.8996	21.2402	53.3359	21.2402	53.6269
21.9727	54.9255	21.9727	54.1336	21.9727	54.5476
22.7051	56.3021	22.7051	55.5171	22.7051	55.9273
23.4375	56.4854	23.4375	55.2547	23.4375	55.9135
24.1699	56.8924	24.1699	55.9496	24.1699	56.4465
25.6348	58.2108	25.6348	57.6314	25.6348	57.9308
26.3672	59.1806	26.3672	58.7322	26.3672	58.9622
27.0996	60.0758	27.0996	59.8402	27.0996	59.9596
27.832	61.1948	27.832	60.886	27.832	61.0432
29.2969	62.965	29.2969	62.8347	29.2969	62.9003
30.0293	63.8432	30.0293	63.6334	30.0293	63.7396
31.4941	65.344	31.4941	65.2174	31.4941	65.2811
32.2266	66.3433	32.2266	66.1875	32.2266	66.2661
33.6914	67.8534	33.6914	67.6564	33.6914	67.756
34.4238	68.6729	34.4238	68.4644	34.4238	68.5699
35.8887	70.168	35.8887	69.9285	35.8887	70.0499
37.3535	71.5266	37.3535	71.2813	37.3535	71.4057
38.8184	72.8151	38.8184	72.5508	38.8184	72.685
39.5508	73.4917	39.5508	73.1967	39.5508	73.3467
41.0156	74.3683	41.0156	74.038	41.0156	74.2063
42.4805	75.5993	42.4805	75.3017	42.4805	75.453
43.9453	76.5295	43.9453	76.2084	43.9453	76.3719
45.4102	77.3335	45.4102	76.9914	45.4102	77.1658
47.6074	78.3642	47.6074	77.996	47.6074	78.184
49.0723	78.9611	49.0723	78.5742	49.0723	78.7719
50.5371	79.4734	50.5371	79.0728	50.5371	79.2777
52.7344	80.1434	52.7344	79.7264	52.7344	79.9399
54.1992	80.5073	54.1992	80.083	54.1992	80.3003
56.3965	80.9715	56.3965	80.525	56.3965	80.754
58.5938	81.2665	58.5938	80.8207	58.5938	81.0493
60.0586	81.5227	60.0586	81.0637	60.0586	81.2992
62.2559	81.9288	62.2559	81.4193	62.2559	81.6815
64.4531	82.1876	64.4531	81.6617	64.4531	81.9326
66.6504	82.4454	66.6504	81.896	66.6504	82.1794
69.5801	82.7451	69.5801	82.1586	69.5801	82.4618
71.7773	82.8885	71.7773	82.2991	71.7773	82.6038
73.9746	83.0994	73.9746	82.5058	73.9746	82.8128
76.9043	83.2749	76.9043	82.6583	76.9043	82.9775
79.834	83.4442	79.834	82.802	79.834	83.135
82.7637	83.7868	82.7637	83.1484	82.7637	83.4793
85.6934	83.9627	85.6934	83.2813	85.6934	83.6354
88.623	83.9099	88.623	83.182	88.623	83.5612
91.5527	83.8266	91.5527	83.1697	91.5527	83.5106
94.4824	84.2597	94.4824	83.5475	94.4824	83.9182
98.1445	84.3804	98.1445	83.645	98.1445	84.0282
101.807	84.472	101.807	83.7397	101.807	84.1213
105.469	84.5779	105.469	83.8635	105.469	84.2354
109.131	84.8162	109.131	83.9992	109.131	84.4269
112.793	84.9752	112.793	84.1336	112.793	84.5748
116.455	85.0173	116.455	84.1849	116.455	84.621
120.85	85.1225	120.85	84.3182	120.85	84.7389
125.244	85.3124	125.244	84.4417	125.244	84.8988
129.639	85.3145	129.639	84.4438	129.639	84.9009
134.033	85.2552	134.033	84.3643	134.033	84.8325
138.428	85.3406	138.428	84.3478	138.428	84.8725
143.555	85.4741	143.555	84.4022	143.555	84.9711
148.682	85.5585	148.682	84.4651	148.682	85.0461
153.809	85.5804	153.809	84.4871	153.809	85.0681
159.668	85.8428	159.668	84.6666	159.668	85.2944
164.795	85.7929	164.795	84.5988	164.795	85.2367
170.654	85.7035	170.654	84.5653	170.654	85.1716
176.514	85.6827	176.514	84.4703	176.514	85.1186
183.105	85.7315	183.105	84.3778	183.105	85.1072
189.697	85.7425	189.697	84.4189	189.697	85.1309
196.289	85.7977	196.289	84.4901	196.289	85.1929
202.881	85.8155	202.881	84.4861	202.881	85.2015
210.205	85.7754	210.205	84.404	210.205	85.1436
217.529	85.7428	217.529	84.3172	217.529	85.0882
225.586	85.7901	225.586	84.3061	225.586	85.1112
232.91	85.9879	232.91	84.3834	232.91	85.2593
241.699	85.8307	241.699	84.0723	241.699	85.0399
249.756	86.0769	249.756	84.0217	249.756	85.1697
258.545	85.8676	258.545	84.0713	258.545	85.0616
268.066	85.656	268.066	83.3819	268.066	84.6661
277.588	85.2884	277.588	83.649	277.588	84.5456
287.109	85.2805	287.109	83.6957	287.109	84.56
297.363	85.9373	297.363	84.2242	297.363	85.1647
307.617	85.9374	307.617	84.4352	307.617	85.2509
318.604	85.8843	318.604	84.3282	318.604	85.1756
329.59	85.7356	329.59	84.1849	329.59	85.0291
341.309	84.6277	341.309	83.1447	341.309	83.9492
353.76	83.9036	353.76	82.2049	353.76	83.1368
366.211	86.3892	366.211	83.095	366.211	85.0472
378.662	87.9669	378.662	85.0493	378.662	86.7486
392.578	87.4122	392.578	84.9137	392.578	86.3402
405.762	87.4448	405.762	84.3293	405.762	86.1606
420.41	87.591	420.41	84.6735	420.41	86.3728
435.059	86.913	435.059	84.3421	435.059	85.8151
450.439	86.7645	450.439	84.4681	450.439	85.7664
466.553	86.4439	466.553	84.1916	466.553	85.4621
482.666	86.2087	482.666	84.1878	482.666	85.3148
500.244	86.0923	500.244	83.4238	500.244	84.9598
517.822	85.5783	517.822	83.1104	517.822	84.5173
536.133	85.7363	536.133	82.5113	536.133	84.4165
554.443	85.7878	554.443	82.7011	554.443	84.5131
574.219	85.9848	574.219	82.8171	574.219	84.6836
594.727	84.9826	594.727	83.0916	594.727	84.1393
615.234	84.5885	615.234	83.2267	615.234	83.9607
637.207	85.3151	637.207	83.9775	637.207	84.6976
659.912	87.7637	659.912	81.9088	659.912	85.7561
683.35	87.3955	683.35	82.3786	683.35	85.5744
706.787	88.0118	706.787	83.2391	706.787	86.2505
731.689	87.5115	731.689	85.8104	731.689	86.7437
758.057	87.3014	758.057	86.5734	758.057	86.9527
784.424	87.1337	784.424	86.4016	784.424	86.783
812.256	86.5046	812.256	85.4365	812.256	86.0033
840.82	85.614	840.82	84.7968	840.82	85.2246
870.85	86.1021	870.85	85.4472	870.85	85.787
901.611	86.2958	901.611	85.1748	901.611	85.7714
933.105	86.7882	933.105	84.3405	933.105	85.7346
966.064	86.037	966.064	83.4724	966.064	84.9413
999.756	85.5811	999.756	83.0829	999.756	84.5092
1,034.91	84.8548	1,034.91	83.4136	1,034.91	84.1937
1,071.53	84.8728	1,071.53	83.0882	1,071.53	84.0716
1,109.62	84.8372	1,109.62	82.3052	1,109.62	83.7531
1,148.44	84.9831	1,148.44	81.4251	1,148.44	83.5587
1,189.45	85.1751	1,189.45	82.2585	1,189.45	83.9572
1,231.2	85.1702	1,231.2	82.4442	1,231.2	84.0176
1,274.41	87.1945	1,274.41	82.7701	1,274.41	85.5229
1,319.82	88.0543	1,319.82	84.6386	1,319.82	86.674
1,365.97	86.9461	1,365.97	83.512	1,365.97	85.56
1,414.31	87.1689	1,414.31	83.7386	1,414.31	85.784
1,464.11	86.7599	1,464.11	82.8908	1,464.11	85.2427
1,515.38	86.3765	1,515.38	82.23	1,515.38	84.7804
1,568.85	86.2274	1,568.85	82.6505	1,568.85	84.7972
1,624.51	85.8467	1,624.51	82.2955	1,624.51	84.4244
1,681.64	85.6417	1,681.64	82.7551	1,681.64	84.4339
1,740.97	85.5099	1,740.97	83.8037	1,740.97	84.7401
1,802.49	85.2922	1,802.49	83.2479	1,802.49	84.3893
1,866.21	85.0724	1,866.21	83.4843	1,866.21	84.3506
1,932.13	84.2749	1,932.13	83.4916	1,932.13	83.9008
2,000.24	83.1826	2,000.24	83.4271	2,000.24	83.3066
2,070.56	83.0874	2,070.56	83.3038	2,070.56	83.1969
2,143.8	82.3828	2,143.8	83.2289	2,143.8	82.8264
2,219.24	82.0789	2,219.24	83.0962	2,219.24	82.6173
2,297.61	81.6433	2,297.61	81.4599	2,297.61	81.5526
2,378.17	81.0775	2,378.17	81.2143	2,378.17	81.1464
2,462.4	79.5327	2,462.4	82.4937	2,462.4	81.2608
2,548.83	78.7581	2,548.83	82.144	2,548.83	80.773
2,638.92	78.3374	2,638.92	81.926	2,638.92	80.4922
2,731.93	78.8186	2,731.93	81.7847	2,731.93	80.5501
2,828.61	78.7689	2,828.61	80.9835	2,828.61	80.0158
2,928.22	78.8243	2,928.22	81.0735	2,928.22	80.0929
3,031.49	79.2262	3,031.49	81.0078	3,031.49	80.2077
3,138.43	79.7484	3,138.43	80.7134	3,138.43	80.2577
3,249.02	80.4995	3,249.02	80.357	3,249.02	80.4288
3,363.28	80.7533	3,363.28	80.5074	3,363.28	80.6321
3,481.93	81.131	3,481.93	81.0111	3,481.93	81.0715
3,604.98	82.3817	3,604.98	80.9472	3,604.98	81.7234
3,732.42	82.3036	3,732.42	80.6249	3,732.42	81.5449
3,863.53	81.8225	3,863.53	79.6755	3,863.53	80.8803
3,999.76	82.3498	3,999.76	78.2668	3,999.76	80.7715
4,141.11	82.469	4,141.11	77.8149	4,141.11	80.7377
4,286.87	81.8253	4,286.87	77.0677	4,286.87	80.0678
4,438.48	82.264	4,438.48	77.0255	4,438.48	80.3909
4,594.48	82.9934	4,594.48	77.1297	4,594.48	80.9841
4,757.08	82.939	4,757.08	76.9845	4,757.08	80.9111
4,924.8	83.4387	4,924.8	76.8331	4,924.8	81.2867
5,098.39	83.4616	5,098.39	77.3074	5,098.39	81.394
5,277.83	83.326	5,277.83	77.1931	5,277.83	81.2626
5,463.87	83.3851	5,463.87	76.9505	5,463.87	81.2642
5,656.49	83.5986	5,656.49	76.7652	5,656.49	81.4066
5,856.45	83.5094	5,856.45	76.527	5,856.45	81.2921
6,062.99	83.0479	6,062.99	76.084	6,062.99	80.8338
6,276.86	82.4908	6,276.86	75.5692	6,276.86	80.2837
6,498.05	81.8261	6,498.05	74.4059	6,498.05	79.5387
6,727.29	81.1138	6,727.29	72.6771	6,727.29	78.6852
6,964.6	80.7188	6,964.6	71.0169	6,964.6	78.1504
7,209.96	80.799	7,209.96	69.3851	7,209.96	78.0915
7,464.11	80.8948	7,464.11	68.3692	7,464.11	78.1208
7,727.78	80.4853	7,727.78	69.241	7,727.78	77.7895
8,000.24	79.3935	8,000.24	69.4506	8,000.24	76.8023
8,282.23	78.3063	8,282.23	69.1868	8,282.23	75.7977
8,574.46	78.1699	8,574.46	68.2883	8,574.46	75.5844
8,876.22	79.6991	8,876.22	66.861	8,876.22	76.909
9,189.7	80.7412	9,189.7	65.5501	9,189.7	77.8603
9,513.43	80.7702	9,513.43	65.7452	9,513.43	77.8944
9,848.88	80.1599	9,848.88	66.9137	9,848.88	77.3506
10,196.8	79.5489	10,196.8	65.9337	10,196.8	76.7236
10,556.4	78.9231	10,556.4	65.5568	10,556.4	76.1084
10,928.5	78.2188	10,928.5	65.6013	10,928.5	75.4399
11,313.7	77.3105	11,313.7	64.757	11,313.7	74.535
11,712.9	76.5435	11,712.9	64.5469	11,712.9	73.7992
12,126	75.4604	12,126	65.0078	12,126	72.8248
12,553.7	74.6861	12,553.7	65.7609	12,553.7	72.1992
12,996.1	74.0275	12,996.1	66.2775	12,996.1	71.6912
13,454.6	73.575	13,454.6	66.1931	13,454.6	71.2935
13,928.5	73.0758	13,928.5	66.0797	13,928.5	70.8563
14,419.9	72.1929	14,419.9	66.1488	14,419.9	70.147
14,928.2	71.5413	14,928.2	65.8116	14,928.2	69.5599
15,454.8	71.2191	15,454.8	65.5646	15,454.8	69.2536
15,999.8	70.7425	15,999.8	64.9456	15,999.8	68.7469
16,564.5	69.7928	16,564.5	63.9858	16,564.5	67.7952
17,148.2	69.015	17,148.2	62.19	17,148.2	66.8244
17,753.2	68.0282	17,753.2	60.107	17,753.2	65.6677
18,379.4	66.5328	18,379.4	58.1745	18,379.4	64.1141
19,027.6	64.7528	19,027.6	56.5034	19,027.6	62.3482
19,698.5	63.4885	19,698.5	54.4113	19,698.5	60.9846
19,999.5	63.5594	19,999.5	53.0996	19,999.5	60.9232
