"SPL Horizontal"
"On-Axis"		"10°"		"-10°"		"20°"		"-20°"		"30°"		"-30°"		"40°"		"-40°"		"50°"		"-50°"		"60°"		"-60°"		"70°"		"-70°"		"80°"		"-80°"		"90°"		"-90°"		"100°"		"-100°"		"110°"		"-110°"		"120°"		"-120°"		"130°"		"-130°"		"140°"		"-140°"		"150°"		"-150°"		"160°"		"-160°"		"170°"		"-170°"		"180°"
"Frequency / Hz"	"Sound Pressure Level / dB (re 20 µPa/V)  [2.83  V @ 1. m]"	"Frequency / Hz"	"Sound Pressure Level / dB (re 20 µPa/V)  [2.83  V @ 1. m]"	"Frequency / Hz"	"Sound Pressure Level / dB (re 20 µPa/V)  [2.83  V @ 1. m]"	"Frequency / Hz"	"Sound Pressure Level / dB (re 20 µPa/V)  [2.83  V @ 1. m]"	"Frequency / Hz"	"Sound Pressure Level / dB (re 20 µPa/V)  [2.83  V @ 1. m]"	"Frequency / Hz"	"Sound Pressure Level / dB (re 20 µPa/V)  [2.83  V @ 1. m]"	"Frequency / Hz"	"Sound Pressure Level / dB (re 20 µPa/V)  [2.83  V @ 1. m]"	"Frequency / Hz"	"Sound Pressure Level / dB (re 20 µPa/V)  [2.83  V @ 1. m]"	"Frequency / Hz"	"Sound Pressure Level / dB (re 20 µPa/V)  [2.83  V @ 1. m]"	"Frequency / Hz"	"Sound Pressure Level / dB (re 20 µPa/V)  [2.83  V @ 1. m]"	"Frequency / Hz"	"Sound Pressure Level / dB (re 20 µPa/V)  [2.83  V @ 1. m]"	"Frequency / Hz"	"Sound Pressure Level / dB (re 20 µPa/V)  [2.83  V @ 1. m]"	"Frequency / Hz"	"Sound Pressure Level / dB (re 20 µPa/V)  [2.83  V @ 1. m]"	"Frequency / Hz"	"Sound Pressure Level / dB (re 20 µPa/V)  [2.83  V @ 1. m]"	"Frequency / Hz"	"Sound Pressure Level / dB (re 20 µPa/V)  [2.83  V @ 1. m]"	"Frequency / Hz"	"Sound Pressure Level / dB (re 20 µPa/V)  [2.83  V @ 1. m]"	"Frequency / Hz"	"Sound Pressure Level / dB (re 20 µPa/V)  [2.83  V @ 1. m]"	"Frequency / Hz"	"Sound Pressure Level / dB (re 20 µPa/V)  [2.83  V @ 1. m]"	"Frequency / Hz"	"Sound Pressure Level / dB (re 20 µPa/V)  [2.83  V @ 1. m]"	"Frequency / Hz"	"Sound Pressure Level / dB (re 20 µPa/V)  [2.83  V @ 1. m]"	"Frequency / Hz"	"Sound Pressure Level / dB (re 20 µPa/V)  [2.83  V @ 1. m]"	"Frequency / Hz"	"Sound Pressure Level / dB (re 20 µPa/V)  [2.83  V @ 1. m]"	"Frequency / Hz"	"Sound Pressure Level / dB (re 20 µPa/V)  [2.83  V @ 1. m]"	"Frequency / Hz"	"Sound Pressure Level / dB (re 20 µPa/V)  [2.83  V @ 1. m]"	"Frequency / Hz"	"Sound Pressure Level / dB (re 20 µPa/V)  [2.83  V @ 1. m]"	"Frequency / Hz"	"Sound Pressure Level / dB (re 20 µPa/V)  [2.83  V @ 1. m]"	"Frequency / Hz"	"Sound Pressure Level / dB (re 20 µPa/V)  [2.83  V @ 1. m]"	"Frequency / Hz"	"Sound Pressure Level / dB (re 20 µPa/V)  [2.83  V @ 1. m]"	"Frequency / Hz"	"Sound Pressure Level / dB (re 20 µPa/V)  [2.83  V @ 1. m]"	"Frequency / Hz"	"Sound Pressure Level / dB (re 20 µPa/V)  [2.83  V @ 1. m]"	"Frequency / Hz"	"Sound Pressure Level / dB (re 20 µPa/V)  [2.83  V @ 1. m]"	"Frequency / Hz"	"Sound Pressure Level / dB (re 20 µPa/V)  [2.83  V @ 1. m]"	"Frequency / Hz"	"Sound Pressure Level / dB (re 20 µPa/V)  [2.83  V @ 1. m]"	"Frequency / Hz"	"Sound Pressure Level / dB (re 20 µPa/V)  [2.83  V @ 1. m]"	"Frequency / Hz"	"Sound Pressure Level / dB (re 20 µPa/V)  [2.83  V @ 1. m]"	"Frequency / Hz"	"Sound Pressure Level / dB (re 20 µPa/V)  [2.83  V @ 1. m]"
20.5078	56.8759	20.5078	56.7638	20.5078	56.9304	20.5078	56.5921	20.5078	56.9325	20.5078	56.363	20.5078	56.89	20.5078	56.0844	20.5078	56.8141	20.5078	55.7723	20.5078	56.7192	20.5078	55.453	20.5078	56.6249	20.5078	55.1651	20.5078	56.555	20.5078	54.9584	20.5078	56.5357	20.5078	54.8842	20.5078	56.5905	20.5078	54.9781	20.5078	56.7337	20.5078	55.2424	20.5078	56.9636	20.5078	55.6436	20.5078	57.2595	20.5078	56.1266	20.5078	57.5848	20.5078	56.6355	20.5078	57.8931	20.5078	57.1253	20.5078	58.1375	20.5078	57.5621	20.5078	58.2786	20.5078	57.9182	20.5078	58.2912	20.5078	58.168
21.9727	51.4233	21.9727	51.6952	21.9727	51.4645	21.9727	52.2516	21.9727	51.8381	21.9727	53.0568	21.9727	52.5392	21.9727	54.0649	21.9727	53.5251	21.9727	55.2197	21.9727	54.7202	21.9727	56.4622	21.9727	56.0383	21.9727	57.7388	21.9727	57.4034	21.9727	59.0061	21.9727	58.7583	21.9727	60.2311	21.9727	60.064	21.9727	61.39	21.9727	61.2945	21.9727	62.4645	21.9727	62.4312	21.9727	63.4404	21.9727	63.4589	21.9727	64.3047	21.9727	64.363	21.9727	65.0451	21.9727	65.1277	21.9727	65.6486	21.9727	65.7367	21.9727	66.1016	21.9727	66.1753	21.9727	66.3906	21.9727	66.4325	21.9727	66.5036
23.4375	60.4278	23.4375	60.4122	23.4375	60.4338	23.4375	60.3929	23.4375	60.4349	23.4375	60.3868	23.4375	60.4472	23.4375	60.4214	23.4375	60.4977	23.4375	60.5325	23.4375	60.6221	23.4375	60.7584	23.4375	60.8591	23.4375	61.1292	23.4375	61.2394	23.4375	61.655	23.4375	61.7747	23.4375	62.3207	23.4375	62.4506	23.4375	63.0888	23.4375	63.23	23.4375	63.9107	23.4375	64.0631	23.4375	64.7364	23.4375	64.8978	23.4375	65.5209	23.4375	65.6854	23.4375	66.2258	23.4375	66.3834	23.4375	66.819	23.4375	66.9562	23.4375	67.2736	23.4375	67.376	23.4375	67.5683	23.4375	67.6231	23.4375	67.6875
24.9023	63.2993	24.9023	63.2372	24.9023	63.3242	24.9023	63.1396	24.9023	63.3144	24.9023	63.0137	24.9023	63.2774	24.9023	62.8725	24.9023	63.2262	24.9023	62.7367	24.9023	63.1802	24.9023	62.6355	24.9023	63.1651	24.9023	62.6055	24.9023	63.2121	24.9023	62.6852	24.9023	63.3522	24.9023	62.9047	24.9023	63.6092	24.9023	63.2743	24.9023	63.9898	24.9023	63.7776	24.9023	64.4788	24.9023	64.3749	24.9023	65.0398	24.9023	65.0138	24.9023	65.6224	24.9023	65.6403	24.9023	66.1715	24.9023	66.2053	24.9023	66.6355	24.9023	66.6672	24.9023	66.9719	24.9023	66.9928	24.9023	67.1511	24.9023	67.1583
26.3672	62.2366	26.3672	62.1463	26.3672	62.254	26.3672	61.9842	26.3672	62.2004	26.3672	61.7542	26.3672	62.0805	26.3672	61.466	26.3672	61.9027	26.3672	61.1379	26.3672	61.6814	26.3672	60.801	26.3672	61.439	26.3672	60.5033	26.3672	61.2085	26.3672	60.3076	26.3672	61.0339	26.3672	60.2784	26.3672	60.9643	26.3672	60.4563	26.3672	61.0409	26.3672	60.8338	26.3672	61.2784	26.3672	61.3546	26.3672	61.6546	26.3672	61.9372	26.3672	62.1159	26.3672	62.5021	26.3672	62.5951	26.3672	62.9885	26.3672	63.0297	26.3672	63.3567	26.3672	63.3715	26.3672	63.5843	26.3672	63.5882	26.3672	63.6617
27.832	59.9059	27.832	59.8529	27.832	59.8707	27.832	59.7193	27.832	59.748	27.832	59.5235	27.832	59.5466	27.832	59.2993	27.832	59.2859	27.832	59.1008	27.832	59.0007	27.832	59.0035	27.832	58.7451	27.832	59.0898	27.832	58.5922	27.832	59.4166	27.832	58.62	27.832	59.9821	27.832	58.8802	27.832	60.7222	27.832	59.3692	27.832	61.5404	27.832	60.0276	27.832	62.3421	27.832	60.7707	27.832	63.0526	27.832	61.5213	27.832	63.6203	27.832	62.2259	27.832	64.0145	27.832	62.8532	27.832	64.2224	27.832	63.3853	27.832	64.2466	27.832	63.8072	27.832	64.1013
29.2969	64.4686	29.2969	64.4908	29.2969	64.4464	29.2969	64.5187	29.2969	64.4254	29.2969	64.5653	29.2969	64.4143	29.2969	64.6492	29.2969	64.4286	29.2969	64.793	29.2969	64.4898	29.2969	65.0187	29.2969	64.6226	29.2969	65.3423	29.2969	64.8498	29.2969	65.7679	29.2969	65.1859	29.2969	66.2852	29.2969	65.6314	29.2969	66.8698	29.2969	66.1705	29.2969	67.4882	29.2969	66.7744	29.2969	68.1026	29.2969	67.4068	29.2969	68.6755	29.2969	68.0303	29.2969	69.1736	29.2969	68.6103	29.2969	69.5688	29.2969	69.1166	29.2969	69.8402	29.2969	69.5236	29.2969	69.9739	29.2969	69.8108	29.2969	69.9637
30.7617	67.7742	30.7617	67.7771	30.7617	67.7732	30.7617	67.7847	30.7617	67.7753	30.7617	67.8037	30.7617	67.7858	30.7617	67.8448	30.7617	67.8138	30.7617	67.9211	30.7617	67.8722	30.7617	68.0475	30.7617	67.9764	30.7617	68.2377	30.7617	68.1422	30.7617	68.5015	30.7617	68.3823	30.7617	68.8412	30.7617	68.7031	30.7617	69.2498	30.7617	69.1011	30.7617	69.7105	30.7617	69.5616	30.7617	70.1984	30.7617	70.0604	30.7617	70.6839	30.7617	70.5659	30.7617	71.1356	30.7617	71.0434	30.7617	71.5235	30.7617	71.4585	30.7617	71.8207	30.7617	71.7808	30.7617	72.0055	30.7617	71.9869	30.7617	72.063
32.2266	69.0889	32.2266	69.0718	32.2266	69.1051	32.2266	69.0558	32.2266	69.1216	32.2266	69.046	32.2266	69.1429	32.2266	69.051	32.2266	69.1765	32.2266	69.0819	32.2266	69.233	32.2266	69.1522	32.2266	69.3247	32.2266	69.2757	32.2266	69.4651	32.2266	69.4643	32.2266	69.6656	32.2266	69.7244	32.2266	69.9332	32.2266	70.0547	32.2266	70.2672	32.2266	70.4444	32.2266	70.6574	32.2266	70.8738	32.2266	71.0838	32.2266	71.3168	32.2266	71.5187	32.2266	71.7439	32.2266	71.9291	32.2266	72.1248	32.2266	72.2816	32.2266	72.4315	32.2266	72.5464	32.2266	72.6399	32.2266	72.701	32.2266	72.7327
33.6914	69.8171	33.6914	69.798	33.6914	69.834	33.6914	69.7785	33.6914	69.8496	33.6914	69.7632	33.6914	69.8679	33.6914	69.7594	33.6914	69.8951	33.6914	69.7773	33.6914	69.9402	33.6914	69.8292	33.6914	70.0141	33.6914	69.928	33.6914	70.1286	33.6914	70.0852	33.6914	70.2942	33.6914	70.3081	33.6914	70.5181	33.6914	70.5967	33.6914	70.8015	33.6914	70.9424	33.6914	71.1374	33.6914	71.3279	33.6914	71.5096	33.6914	71.729	33.6914	71.8944	33.6914	72.1174	33.6914	72.2621	33.6914	72.4641	33.6914	72.5821	33.6914	72.7417	33.6914	72.826	33.6914	72.9278	33.6914	72.9719	33.6914	73.0069
35.1562	70.252	35.1562	70.2421	35.1562	70.2606	35.1562	70.2327	35.1562	70.2684	35.1562	70.2284	35.1562	70.2784	35.1562	70.2362	35.1562	70.296	35.1562	70.2654	35.1562	70.329	35.1562	70.3269	35.1562	70.3866	35.1562	70.432	35.1562	70.4789	35.1562	70.5903	35.1562	70.6153	35.1562	70.8068	35.1562	70.8025	35.1562	71.0802	35.1562	71.0422	35.1562	71.4009	35.1562	71.3295	35.1562	71.7515	35.1562	71.6521	35.1562	72.1084	35.1562	71.9911	35.1562	72.4441	35.1562	72.3227	35.1562	72.7316	35.1562	72.6216	35.1562	72.947	35.1562	72.8634	35.1562	73.073	35.1562	73.0279	35.1562	73.1003
36.6211	70.8186	36.6211	70.8225	36.6211	70.815	36.6211	70.8287	36.6211	70.8121	36.6211	70.8416	36.6211	70.8123	36.6211	70.8678	36.6211	70.8206	36.6211	70.916	36.6211	70.8435	36.6211	70.9955	36.6211	70.8891	36.6211	71.1158	36.6211	70.9662	36.6211	71.2835	36.6211	71.0829	36.6211	71.5015	36.6211	71.2451	36.6211	71.7661	36.6211	71.4546	36.6211	72.0667	36.6211	71.7077	36.6211	72.3857	36.6211	71.9946	36.6211	72.7005	36.6211	72.3002	36.6211	72.9856	36.6211	72.6056	36.6211	73.2166	36.6211	72.8902	36.6211	73.3737	36.6211	73.1335	36.6211	73.4441	36.6211	73.3166	36.6211	73.4238
38.0859	71.609	38.0859	71.6222	38.0859	71.6036	38.0859	71.6448	38.0859	71.6058	38.0859	71.6802	38.0859	71.6172	38.0859	71.7332	38.0859	71.6413	38.0859	71.8097	38.0859	71.6828	38.0859	71.9157	38.0859	71.7473	38.0859	72.0566	38.0859	71.841	38.0859	72.236	38.0859	71.9697	38.0859	72.4539	38.0859	72.137	38.0859	72.7062	38.0859	72.3435	38.0859	72.9834	38.0859	72.5853	38.0859	73.2708	38.0859	72.8537	38.0859	73.5496	38.0859	73.1357	38.0859	73.7987	38.0859	73.4151	38.0859	73.9982	38.0859	73.6745	38.0859	74.1314	38.0859	73.8961	38.0859	74.1878	38.0859	74.0639	38.0859	74.1642
39.5508	73.0772	39.5508	73.0968	39.5508	73.068	39.5508	73.1278	39.5508	73.0694	39.5508	73.1721	39.5508	73.0825	39.5508	73.2322	39.5508	73.1094	39.5508	73.3114	39.5508	73.1533	39.5508	73.413	39.5508	73.2178	39.5508	73.5397	39.5508	73.3069	39.5508	73.6933	39.5508	73.4238	39.5508	73.8732	39.5508	73.5705	39.5508	74.0759	39.5508	73.7467	39.5508	74.2942	39.5508	73.9487	39.5508	74.5172	39.5508	74.1689	39.5508	74.731	39.5508	74.3965	39.5508	74.92	39.5508	74.6186	39.5508	75.0699	39.5508	74.8213	39.5508	75.1692	39.5508	74.9916	39.5508	75.2111	39.5508	75.1185	39.5508	75.1935
41.0156	74.5804	41.0156	74.5807	41.0156	74.587	41.0156	74.5891	41.0156	74.6005	41.0156	74.6073	41.0156	74.6215	41.0156	74.6378	41.0156	74.6516	41.0156	74.6836	41.0156	74.6931	41.0156	74.7479	41.0156	74.749	41.0156	74.8337	41.0156	74.8227	41.0156	74.9429	41.0156	74.9173	41.0156	75.076	41.0156	75.0351	41.0156	75.2308	41.0156	75.1767	41.0156	75.4028	41.0156	75.3396	41.0156	75.5841	41.0156	75.518	41.0156	75.7645	41.0156	75.7023	41.0156	75.9325	41.0156	75.8802	41.0156	76.0766	41.0156	76.0379	41.0156	76.1867	41.0156	76.1623	41.0156	76.2545	41.0156	76.243	41.0156	76.2742
42.4805	75.7913	42.4805	75.802	42.4805	75.7903	42.4805	75.8228	42.4805	75.7995	42.4805	75.8547	42.4805	75.8204	42.4805	75.8994	42.4805	75.855	42.4805	75.9591	42.4805	75.9061	42.4805	76.0362	42.4805	75.9767	42.4805	76.1332	42.4805	76.0698	42.4805	76.2518	42.4805	76.188	42.4805	76.393	42.4805	76.3329	42.4805	76.5559	42.4805	76.5039	42.4805	76.7375	42.4805	76.6979	42.4805	76.9323	42.4805	76.9084	42.4805	77.1316	42.4805	77.1248	42.4805	77.3247	42.4805	77.3329	42.4805	77.4986	42.4805	77.5164	42.4805	77.6397	42.4805	77.6589	42.4805	77.7346	42.4805	77.7468	42.4805	77.7723
43.9453	76.6204	43.9453	76.6269	43.9453	76.629	43.9453	76.6488	43.9453	76.6528	43.9453	76.6868	43.9453	76.6926	43.9453	76.7419	43.9453	76.7494	43.9453	76.8155	43.9453	76.8245	43.9453	76.9091	43.9453	76.9198	43.9453	77.024	43.9453	77.037	43.9453	77.1613	43.9453	77.1777	43.9453	77.3216	43.9453	77.3426	43.9453	77.5039	43.9453	77.5312	43.9453	77.7055	43.9453	77.7405	43.9453	77.9211	43.9453	77.9646	43.9453	78.1427	43.9453	78.1936	43.9453	78.3591	43.9453	78.4137	43.9453	78.5562	43.9453	78.6081	43.9453	78.7178	43.9453	78.759	43.9453	78.8283	43.9453	78.8512	43.9453	78.8748
45.4102	77.1816	45.4102	77.1906	45.4102	77.1897	45.4102	77.2167	45.4102	77.2149	45.4102	77.2601	45.4102	77.258	45.4102	77.3214	45.4102	77.3197	45.4102	77.4015	45.4102	77.401	45.4102	77.5013	45.4102	77.5032	45.4102	77.6218	45.4102	77.6276	45.4102	77.7642	45.4102	77.7752	45.4102	77.929	45.4102	77.9466	45.4102	78.1158	45.4102	78.1413	45.4102	78.3226	45.4102	78.3567	45.4102	78.545	45.4102	78.5872	45.4102	78.7754	45.4102	78.8237	45.4102	79.0022	45.4102	79.0526	45.4102	79.21	45.4102	79.2566	45.4102	79.3809	45.4102	79.417	45.4102	79.4969	45.4102	79.5167	45.4102	79.5443
46.875	77.2015	46.875	77.213	46.875	77.2097	46.875	77.244	46.875	77.2377	46.875	77.2944	46.875	77.286	46.875	77.3643	46.875	77.355	46.875	77.4541	46.875	77.4452	46.875	77.5642	46.875	77.5571	46.875	77.6952	46.875	77.6914	46.875	77.8479	46.875	77.8484	46.875	78.0225	46.875	78.0283	46.875	78.2186	46.875	78.2303	46.875	78.4342	46.875	78.4519	46.875	78.6651	46.875	78.6881	46.875	78.9036	46.875	78.9302	46.875	79.1376	46.875	79.1652	46.875	79.3511	46.875	79.3763	46.875	79.525	46.875	79.5442	46.875	79.6409	46.875	79.6513	46.875	79.6849
48.3398	76.9587	48.3398	76.9698	48.3398	76.9659	48.3398	76.9989	48.3398	76.9915	48.3398	77.046	48.3398	77.0356	48.3398	77.1108	48.3398	77.0983	48.3398	77.1936	48.3398	77.18	48.3398	77.2944	48.3398	77.281	48.3398	77.4139	48.3398	77.4017	48.3398	77.5526	48.3398	77.5428	48.3398	77.7112	48.3398	77.7044	48.3398	77.8897	48.3398	77.8863	48.3398	78.0867	48.3398	78.0868	48.3398	78.2989	48.3398	78.3018	48.3398	78.519	48.3398	78.5239	48.3398	78.7358	48.3398	78.7415	48.3398	78.9337	48.3398	78.9389	48.3398	79.0941	48.3398	79.098	48.3398	79.1995	48.3398	79.2015	48.3398	79.2369
51.2695	77.1077	51.2695	77.1261	51.2695	77.0944	51.2695	77.1493	51.2695	77.0863	51.2695	77.1768	51.2695	77.0835	51.2695	77.2081	51.2695	77.0857	51.2695	77.2427	51.2695	77.0929	51.2695	77.2802	51.2695	77.1049	51.2695	77.3202	51.2695	77.1216	51.2695	77.3628	51.2695	77.1434	51.2695	77.4077	51.2695	77.1705	51.2695	77.4545	51.2695	77.2034	51.2695	77.5021	51.2695	77.2425	51.2695	77.5486	51.2695	77.2877	51.2695	77.5908	51.2695	77.3385	51.2695	77.6246	51.2695	77.3938	51.2695	77.6454	51.2695	77.4515	51.2695	77.6497	51.2695	77.5088	51.2695	77.6361	51.2695	77.5617	51.2695	77.6056
52.7344	77.9565	52.7344	77.9765	52.7344	77.9392	52.7344	77.9991	52.7344	77.9248	52.7344	78.0234	52.7344	77.9129	52.7344	78.0487	52.7344	77.9028	52.7344	78.0736	52.7344	77.8937	52.7344	78.097	52.7344	77.8847	52.7344	78.1175	52.7344	77.8747	52.7344	78.1335	52.7344	77.8628	52.7344	78.1437	52.7344	77.8481	52.7344	78.146	52.7344	77.83	52.7344	78.1385	52.7344	77.8083	52.7344	78.1188	52.7344	77.7831	52.7344	78.0846	52.7344	77.7562	52.7344	78.035	52.7344	77.731	52.7344	77.9715	52.7344	77.7131	52.7344	77.8994	52.7344	77.7098	52.7344	77.8279	52.7344	77.7272	52.7344	77.7677
54.1992	78.9749	54.1992	78.992	54.1992	78.9642	54.1992	79.0152	54.1992	78.96	54.1992	79.0434	54.1992	78.9616	54.1992	79.0752	54.1992	78.9679	54.1992	79.109	54.1992	78.9776	54.1992	79.1427	54.1992	78.9889	54.1992	79.1743	54.1992	78.9996	54.1992	79.2015	54.1992	79.0077	54.1992	79.2222	54.1992	79.011	54.1992	79.2339	54.1992	79.0078	54.1992	79.2342	54.1992	78.9968	54.1992	79.2206	54.1992	78.9776	54.1992	79.1915	54.1992	78.9518	54.1992	79.1465	54.1992	78.923	54.1992	79.0885	54.1992	78.8975	54.1992	79.0241	54.1992	78.8834	54.1992	78.9629	54.1992	78.888	54.1992	78.9151
55.6641	79.8311	55.6641	79.8449	55.6641	79.8295	55.6641	79.8704	55.6641	79.8397	55.6641	79.9069	55.6641	79.8609	55.6641	79.9527	55.6641	79.8916	55.6641	80.0058	55.6641	79.9299	55.6641	80.0639	55.6641	79.9733	55.6641	80.1244	55.6641	80.0195	55.6641	80.1845	55.6641	80.0656	55.6641	80.2414	55.6641	80.1093	55.6641	80.2925	55.6641	80.1484	55.6641	80.3349	55.6641	80.1814	55.6641	80.3661	55.6641	80.2078	55.6641	80.3843	55.6641	80.2279	55.6641	80.3886	55.6641	80.2435	55.6641	80.38	55.6641	80.2572	55.6641	80.3615	55.6641	80.272	55.6641	80.3375	55.6641	80.2903	55.6641	80.3126
58.5938	80.4955	58.5938	80.5022	58.5938	80.508	58.5938	80.5276	58.5938	80.5398	58.5938	80.5705	58.5938	80.59	58.5938	80.6291	58.5938	80.6572	58.5938	80.7013	58.5938	80.739	58.5938	80.7843	58.5938	80.8325	58.5938	80.8756	58.5938	80.9345	58.5938	80.9721	58.5938	81.0415	58.5938	81.071	58.5938	81.15	58.5938	81.1697	58.5938	81.2569	58.5938	81.266	58.5938	81.3591	58.5938	81.3582	58.5938	81.4541	58.5938	81.4448	58.5938	81.5392	58.5938	81.5244	58.5938	81.612	58.5938	81.5951	58.5938	81.6696	58.5938	81.6543	58.5938	81.709	58.5938	81.6984	58.5938	81.7275	58.5938	81.7237
60.0586	80.5366	60.0586	80.5329	60.0586	80.5579	60.0586	80.5465	60.0586	80.5962	60.0586	80.5765	60.0586	80.6505	60.0586	80.6215	60.0586	80.7191	60.0586	80.6796	60.0586	80.7997	60.0586	80.7486	60.0586	80.8896	60.0586	80.8262	60.0586	80.9861	60.0586	80.91	60.0586	81.086	60.0586	80.9978	60.0586	81.1866	60.0586	81.0878	60.0586	81.2853	60.0586	81.1785	60.0586	81.3796	60.0586	81.269	60.0586	81.4675	60.0586	81.3582	60.0586	81.5467	60.0586	81.4449	60.0586	81.6146	60.0586	81.5269	60.0586	81.6677	60.0586	81.6001	60.0586	81.7017	60.0586	81.659	60.0586	81.7125	60.0586	81.6979
62.9883	80.4875	62.9883	80.4832	62.9883	80.5066	62.9883	80.4932	62.9883	80.5402	62.9883	80.5169	62.9883	80.5876	62.9883	80.5528	62.9883	80.6475	62.9883	80.5993	62.9883	80.7184	62.9883	80.6546	62.9883	80.7981	62.9883	80.7166	62.9883	80.8843	62.9883	80.7836	62.9883	80.9748	62.9883	80.8541	62.9883	81.0671	62.9883	80.9273	62.9883	81.1591	62.9883	81.0029	62.9883	81.2487	62.9883	81.0813	62.9883	81.3338	62.9883	81.1632	62.9883	81.4118	62.9883	81.2482	62.9883	81.479	62.9883	81.3342	62.9883	81.5303	62.9883	81.4164	62.9883	81.5602	62.9883	81.4872	62.9883	81.5635	62.9883	81.5384
64.4531	80.5894	64.4531	80.5974	64.4531	80.5981	64.4531	80.6212	64.4531	80.6234	64.4531	80.6595	64.4531	80.6646	64.4531	80.7103	64.4531	80.7204	64.4531	80.7709	64.4531	80.7887	64.4531	80.8388	64.4531	80.8672	64.4531	80.9112	64.4531	80.9531	64.4531	80.9854	64.4531	81.0438	64.4531	81.0596	64.4531	81.1367	64.4531	81.1326	64.4531	81.2292	64.4531	81.2039	64.4531	81.3194	64.4531	81.2742	64.4531	81.405	64.4531	81.3443	64.4531	81.4837	64.4531	81.4143	64.4531	81.5521	64.4531	81.4832	64.4531	81.6058	64.4531	81.5473	64.4531	81.6402	64.4531	81.6009	64.4531	81.6511	64.4531	81.6373
67.3828	80.9363	67.3828	80.9471	67.3828	80.9422	67.3828	80.9739	67.3828	80.9647	67.3828	81.0155	67.3828	81.0026	67.3828	81.0697	67.3828	81.0543	67.3828	81.1339	67.3828	81.1174	67.3828	81.2048	67.3828	81.1893	67.3828	81.2794	67.3828	81.2671	67.3828	81.3545	67.3828	81.3479	67.3828	81.4275	67.3828	81.429	67.3828	81.4965	67.3828	81.508	67.3828	81.5605	67.3828	81.5832	67.3828	81.6194	67.3828	81.6529	67.3828	81.6736	67.3828	81.7157	67.3828	81.7236	67.3828	81.7699	67.3828	81.7692	67.3828	81.8134	67.3828	81.8086	67.3828	81.8436	67.3828	81.8389	67.3828	81.8583	67.3828	81.8564
68.8477	80.9903	68.8477	81.0015	68.8477	80.9954	68.8477	81.0284	68.8477	81.0165	68.8477	81.0699	68.8477	81.0525	68.8477	81.1239	68.8477	81.1017	68.8477	81.188	68.8477	81.1618	68.8477	81.2592	68.8477	81.2303	68.8477	81.3345	68.8477	81.3044	68.8477	81.4108	68.8477	81.3813	68.8477	81.4856	68.8477	81.4587	68.8477	81.5569	68.8477	81.5346	68.8477	81.6234	68.8477	81.6074	68.8477	81.6848	68.8477	81.6759	68.8477	81.7412	68.8477	81.7392	68.8477	81.7924	68.8477	81.796	68.8477	81.8375	68.8477	81.8441	68.8477	81.8742	68.8477	81.8809	68.8477	81.8994	68.8477	81.9035	68.8477	81.9098
71.7773	81.0415	71.7773	81.0492	71.7773	81.0472	71.7773	81.07	71.7773	81.066	71.7773	81.1031	71.7773	81.0968	71.7773	81.1468	71.7773	81.1382	71.7773	81.1992	71.7773	81.1882	71.7773	81.2578	71.7773	81.2445	71.7773	81.3202	71.7773	81.305	71.7773	81.3838	71.7773	81.3672	71.7773	81.4466	71.7773	81.4293	71.7773	81.507	71.7773	81.49	71.7773	81.5644	71.7773	81.5482	71.7773	81.6185	71.7773	81.6037	71.7773	81.6695	71.7773	81.6563	71.7773	81.7169	71.7773	81.7055	71.7773	81.7592	71.7773	81.7498	71.7773	81.7933	71.7773	81.7864	71.7773	81.8152	71.7773	81.8115	71.7773	81.8216
74.707	81.492	74.707	81.4943	74.707	81.4962	74.707	81.5027	74.707	81.5066	74.707	81.5161	74.707	81.5223	74.707	81.533	74.707	81.5417	74.707	81.5511	74.707	81.5629	74.707	81.5685	74.707	81.5835	74.707	81.5828	74.707	81.6011	74.707	81.5925	74.707	81.6139	74.707	81.5963	74.707	81.6203	74.707	81.5943	74.707	81.62	74.707	81.5877	74.707	81.6137	74.707	81.5786	74.707	81.6033	74.707	81.5699	74.707	81.5915	74.707	81.564	74.707	81.5811	74.707	81.5621	74.707	81.5742	74.707	81.5636	74.707	81.5709	74.707	81.5665	74.707	81.5698	74.707	81.5687
77.6367	82.0898	77.6367	82.0957	77.6367	82.0883	77.6367	82.1054	77.6367	82.0907	77.6367	82.1176	77.6367	82.0957	77.6367	82.1299	77.6367	82.1011	77.6367	82.1395	77.6367	82.1041	77.6367	82.1428	77.6367	82.1013	77.6367	82.1365	77.6367	82.0896	77.6367	82.1171	77.6367	82.0658	77.6367	82.0826	77.6367	82.0277	77.6367	82.0317	77.6367	81.9744	77.6367	81.9653	77.6367	81.9068	77.6367	81.8864	77.6367	81.8279	77.6367	81.8001	77.6367	81.7434	77.6367	81.7131	77.6367	81.6605	77.6367	81.6329	77.6367	81.5878	77.6367	81.5665	77.6367	81.533	77.6367	81.52	77.6367	81.502	77.6367	81.4977
79.1016	82.2778	79.1016	82.2827	79.1016	82.278	79.1016	82.2921	79.1016	82.2826	79.1016	82.3045	79.1016	82.2901	79.1016	82.3172	79.1016	82.298	79.1016	82.327	79.1016	82.3028	79.1016	82.3298	79.1016	82.3008	79.1016	82.3215	79.1016	82.2878	79.1016	82.2983	79.1016	82.2601	79.1016	82.2569	79.1016	82.2145	79.1016	82.1957	79.1016	82.1495	79.1016	82.1149	79.1016	82.0653	79.1016	82.017	79.1016	81.9649	79.1016	81.9075	79.1016	81.8544	79.1016	81.7944	79.1016	81.743	79.1016	81.6873	79.1016	81.6418	79.1016	81.5971	79.1016	81.5625	79.1016	81.5338	79.1016	81.515	79.1016	81.5051
82.0312	82.6084	82.0312	82.6117	82.0312	82.6137	82.0312	82.6232	82.0312	82.6268	82.0312	82.641	82.0312	82.6456	82.0312	82.6621	82.0312	82.6668	82.0312	82.6825	82.0312	82.6861	82.0312	82.6971	82.0312	82.6986	82.0312	82.7008	82.0312	82.6988	82.0312	82.6882	82.0312	82.6817	82.0312	82.6548	82.0312	82.6426	82.0312	82.5973	82.0312	82.5784	82.0312	82.5143	82.0312	82.4882	82.0312	82.4074	82.0312	82.3742	82.0312	82.2816	82.0312	82.2423	82.0312	82.1456	82.0312	82.1032	82.0312	82.0119	82.0312	81.9714	82.0312	81.896	82.0312	81.8636	82.0312	81.8138	82.0312	81.7956	82.0312	81.7782
84.9609	82.7767	84.9609	82.7654	84.9609	82.8026	84.9609	82.7685	84.9609	82.8418	84.9609	82.7847	84.9609	82.8918	84.9609	82.8112	84.9609	82.9491	84.9609	82.8442	84.9609	83.0087	84.9609	82.8789	84.9609	83.0651	84.9609	82.9095	84.9609	83.1122	84.9609	82.9305	84.9609	83.1436	84.9609	82.9362	84.9609	83.1535	84.9609	82.9224	84.9609	83.137	84.9609	82.8864	84.9609	83.0914	84.9609	82.8283	84.9609	83.0165	84.9609	82.7515	84.9609	82.9163	84.9609	82.6633	84.9609	82.7992	84.9609	82.5751	84.9609	82.6782	84.9609	82.5008	84.9609	82.5695	84.9609	82.4552	84.9609	82.4894	84.9609	82.4499
87.8906	83.3513	87.8906	83.373	87.8906	83.3308	87.8906	83.3947	87.8906	83.3121	87.8906	83.4144	87.8906	83.2949	87.8906	83.4295	87.8906	83.2781	87.8906	83.4367	87.8906	83.2594	87.8906	83.4324	87.8906	83.2357	87.8906	83.4126	87.8906	83.203	87.8906	83.3731	87.8906	83.1568	87.8906	83.3104	87.8906	83.0928	87.8906	83.2217	87.8906	83.0075	87.8906	83.1063	87.8906	82.8993	87.8906	82.9659	87.8906	82.7697	87.8906	82.8058	87.8906	82.6244	87.8906	82.6353	87.8906	82.4742	87.8906	82.468	87.8906	82.3347	87.8906	82.3207	87.8906	82.2243	87.8906	82.2116	87.8906	82.1607	87.8906	82.1557
90.8203	83.1448	90.8203	83.1497	90.8203	83.1537	90.8203	83.1675	90.8203	83.1754	90.8203	83.1966	90.8203	83.2077	90.8203	83.2337	90.8203	83.2475	90.8203	83.2744	90.8203	83.2902	90.8203	83.3139	90.8203	83.3307	90.8203	83.3465	90.8203	83.3634	90.8203	83.3669	90.8203	83.3826	90.8203	83.3704	90.8203	83.3833	90.8203	83.3533	90.8203	83.3616	90.8203	83.314	90.8203	83.3159	90.8203	83.2532	90.8203	83.2475	90.8203	83.1745	90.8203	83.161	90.8203	83.0847	90.8203	83.0651	90.8203	82.9936	90.8203	82.9715	90.8203	82.9131	90.8203	82.8938	90.8203	82.8555	90.8203	82.8442	90.8203	82.8308
95.2148	83.0448	95.2148	83.0443	95.2148	83.0563	95.2148	83.0544	95.2148	83.0786	95.2148	83.0739	95.2148	83.1104	95.2148	83.1009	95.2148	83.1493	95.2148	83.1328	95.2148	83.1924	95.2148	83.1662	95.2148	83.2356	95.2148	83.1977	95.2148	83.2744	95.2148	83.2236	95.2148	83.3042	95.2148	83.2404	95.2148	83.3208	95.2148	83.2457	95.2148	83.3212	95.2148	83.238	95.2148	83.304	95.2148	83.2174	95.2148	83.2702	95.2148	83.1859	95.2148	83.2234	95.2148	83.1469	95.2148	83.1693	95.2148	83.1057	95.2148	83.1159	95.2148	83.0685	95.2148	83.0711	95.2148	83.0422	95.2148	83.0419	95.2148	83.0322
98.1445	83.4941	98.1445	83.4944	98.1445	83.4971	98.1445	83.4966	98.1445	83.504	98.1445	83.4991	98.1445	83.5147	98.1445	83.4998	98.1445	83.5281	98.1445	83.4965	98.1445	83.5419	98.1445	83.4867	98.1445	83.5528	98.1445	83.4678	98.1445	83.5566	98.1445	83.4377	98.1445	83.5488	98.1445	83.3949	98.1445	83.5252	98.1445	83.339	98.1445	83.4828	98.1445	83.2712	98.1445	83.4207	98.1445	83.1948	98.1445	83.3405	98.1445	83.1143	98.1445	83.247	98.1445	83.0363	98.1445	83.148	98.1445	82.9677	98.1445	83.0532	98.1445	82.9158	98.1445	82.9728	98.1445	82.8871	98.1445	82.9154	98.1445	82.8863
101.074	83.6676	101.074	83.6916	101.074	83.647	101.074	83.7177	101.074	83.6307	101.074	83.744	101.074	83.619	101.074	83.7681	101.074	83.6116	101.074	83.7867	101.074	83.6076	101.074	83.7964	101.074	83.6051	101.074	83.7933	101.074	83.6012	101.074	83.7737	101.074	83.5924	101.074	83.7349	101.074	83.5747	101.074	83.6757	101.074	83.5442	101.074	83.597	101.074	83.4983	101.074	83.5028	101.074	83.4366	101.074	83.3997	101.074	83.3618	101.074	83.2967	101.074	83.28	101.074	83.2038	101.074	83.2002	101.074	83.1306	101.074	83.1327	101.074	83.0844	101.074	83.0868	101.074	83.0696
105.469	83.9567	105.469	83.9617	105.469	83.9542	105.469	83.9682	105.469	83.9542	105.469	83.9744	105.469	83.9559	105.469	83.9777	105.469	83.9574	105.469	83.9744	105.469	83.9558	105.469	83.9606	105.469	83.9472	105.469	83.9319	105.469	83.9269	105.469	83.884	105.469	83.8898	105.469	83.8137	105.469	83.8311	105.469	83.7191	105.469	83.7473	105.469	83.6012	105.469	83.6372	105.469	83.4638	105.469	83.5035	105.469	83.3149	105.469	83.3532	105.469	83.1654	105.469	83.198	105.469	83.029	105.469	83.0529	105.469	82.9194	105.469	82.9342	105.469	82.849	105.469	82.8558	105.469	82.8265
108.398	84.0612	108.398	84.0604	108.398	84.0668	108.398	84.0634	108.398	84.0771	108.398	84.0686	108.398	84.0915	108.398	84.0732	108.398	84.1079	108.398	84.074	108.398	84.1234	108.398	84.0668	108.398	84.1339	108.398	84.047	108.398	84.1342	108.398	84.0103	108.398	84.1183	108.398	83.953	108.398	84.0804	108.398	83.8728	108.398	84.0158	108.398	83.77	108.398	83.9219	108.398	83.6482	108.398	83.8	108.398	83.5143	108.398	83.6561	108.398	83.3791	108.398	83.5012	108.398	83.2557	108.398	83.3509	108.398	83.1582	108.398	83.2225	108.398	83.0998	108.398	83.1319	108.398	83.0898
112.793	84.2331	112.793	84.239	112.793	84.2297	112.793	84.2468	112.793	84.2291	112.793	84.2556	112.793	84.2307	112.793	84.2633	112.793	84.2335	112.793	84.2672	112.793	84.2352	112.793	84.2638	112.793	84.2329	112.793	84.2489	112.793	84.2222	112.793	84.218	112.793	84.1981	112.793	84.167	112.793	84.1555	112.793	84.0933	112.793	84.0902	112.793	83.9966	112.793	84.0002	112.793	83.8796	112.793	83.8868	112.793	83.7487	112.793	83.7559	112.793	83.6139	112.793	83.6183	112.793	83.4876	112.793	83.4883	112.793	83.3836	112.793	83.3816	112.793	83.3142	112.793	83.3123	112.793	83.289
117.188	84.3826	117.188	84.3793	117.188	84.3836	117.188	84.3736	117.188	84.3823	117.188	84.3648	117.188	84.3782	117.188	84.3515	117.188	84.3705	117.188	84.3313	117.188	84.3575	117.188	84.3009	117.188	84.3369	117.188	84.2563	117.188	84.3052	117.188	84.193	117.188	84.2577	117.188	84.1068	117.188	84.1894	117.188	83.995	117.188	84.0957	117.188	83.8577	117.188	83.9739	117.188	83.6985	117.188	83.8243	117.188	83.5256	117.188	83.6527	117.188	83.352	117.188	83.4701	117.188	83.1942	117.188	83.2931	117.188	83.0702	117.188	83.1412	117.188	82.996	117.188	83.033	117.188	82.9826
120.117	84.2007	120.117	84.1893	120.117	84.2161	120.117	84.1818	120.117	84.2348	120.117	84.1776	120.117	84.2557	120.117	84.1751	120.117	84.2773	120.117	84.172	120.117	84.2971	120.117	84.1652	120.117	84.312	120.117	84.1508	120.117	84.3178	120.117	84.1244	120.117	84.3092	120.117	84.0818	120.117	84.2806	120.117	84.0198	120.117	84.2271	120.117	83.9367	120.117	84.145	120.117	83.8341	120.117	84.0342	120.117	83.717	120.117	83.8993	120.117	83.5947	120.117	83.7501	120.117	83.4801	120.117	83.6016	120.117	83.3886	120.117	83.4713	120.117	83.3347	120.117	83.3765	120.117	83.3294
124.512	84.1952	124.512	84.2016	124.512	84.1942	124.512	84.2129	124.512	84.1985	124.512	84.228	124.512	84.2071	124.512	84.245	124.512	84.2185	124.512	84.2608	124.512	84.2306	124.512	84.272	124.512	84.2403	124.512	84.2741	124.512	84.244	124.512	84.2625	124.512	84.2375	124.512	84.233	124.512	84.2166	124.512	84.1826	124.512	84.1775	124.512	84.1107	124.512	84.1178	124.512	84.0193	124.512	84.0377	124.512	83.9143	124.512	83.9407	124.512	83.8044	124.512	83.8344	124.512	83.7015	124.512	83.7296	124.512	83.6179	124.512	83.6395	124.512	83.565	124.512	83.5766	124.512	83.5505
128.906	84.3888	128.906	84.4076	128.906	84.3762	128.906	84.432	128.906	84.3702	128.906	84.4608	128.906	84.3704	128.906	84.4922	128.906	84.3758	128.906	84.5234	128.906	84.3842	128.906	84.5504	128.906	84.3921	128.906	84.5684	128.906	84.3952	128.906	84.5715	128.906	84.3881	128.906	84.5541	128.906	84.3657	128.906	84.5116	128.906	84.3236	128.906	84.4414	128.906	84.2597	128.906	84.3444	128.906	84.1746	128.906	84.2258	128.906	84.0734	128.906	84.0948	128.906	83.9651	128.906	83.9648	128.906	83.8624	128.906	83.8511	128.906	83.7801	128.906	83.7681	128.906	83.7317	128.906	83.7267
133.301	84.4154	133.301	84.4244	133.301	84.4054	133.301	84.4325	133.301	84.3946	133.301	84.4401	133.301	84.3839	133.301	84.4475	133.301	84.374	133.301	84.4547	133.301	84.3655	133.301	84.4609	133.301	84.3582	133.301	84.464	133.301	84.3508	133.301	84.4611	133.301	84.3406	133.301	84.4484	133.301	84.3243	133.301	84.4221	133.301	84.298	133.301	84.3793	133.301	84.2585	133.301	84.3189	133.301	84.2048	133.301	84.2427	133.301	84.1387	133.301	84.1561	133.301	84.0657	133.301	84.0676	133.301	83.9948	133.301	83.9883	133.301	83.9369	133.301	83.9293	133.301	83.9026	133.301	83.8994
139.16	84.7434	139.16	84.7464	139.16	84.7301	139.16	84.7395	139.16	84.7059	139.16	84.7237	139.16	84.6711	139.16	84.6994	139.16	84.6261	139.16	84.6666	139.16	84.5715	139.16	84.6248	139.16	84.5082	139.16	84.5728	139.16	84.4368	139.16	84.509	139.16	84.3575	139.16	84.4319	139.16	84.2706	139.16	84.3405	139.16	84.1763	139.16	84.2352	139.16	84.0753	139.16	84.1179	139.16	83.9694	139.16	83.9928	139.16	83.8616	139.16	83.8669	139.16	83.7576	139.16	83.7491	139.16	83.6648	139.16	83.6499	139.16	83.5928	139.16	83.5795	139.16	83.5507	139.16	83.5454
143.555	84.4889	143.555	84.4915	143.555	84.4847	143.555	84.4936	143.555	84.478	143.555	84.4956	143.555	84.4678	143.555	84.4975	143.555	84.453	143.555	84.4983	143.555	84.4324	143.555	84.4962	143.555	84.4045	143.555	84.488	143.555	84.3675	143.555	84.4698	143.555	84.3197	143.555	84.4374	143.555	84.2594	143.555	84.3872	143.555	84.1859	143.555	84.3168	143.555	84.1	143.555	84.226	143.555	84.0045	143.555	84.1178	143.555	83.9044	143.555	83.9988	143.555	83.8074	143.555	83.8792	143.555	83.7227	143.555	83.7714	143.555	83.6608	143.555	83.6883	143.555	83.6311	143.555	83.6399
147.949	84.2463	147.949	84.2394	147.949	84.2549	147.949	84.2355	147.949	84.264	147.949	84.236	147.949	84.2728	147.949	84.2422	147.949	84.2806	147.949	84.2543	147.949	84.2865	147.949	84.2713	147.949	84.2893	147.949	84.2908	147.949	84.287	147.949	84.3089	147.949	84.2775	147.949	84.3208	147.949	84.2585	147.949	84.3215	147.949	84.2283	147.949	84.3068	147.949	84.1863	147.949	84.2742	147.949	84.1341	147.949	84.2239	147.949	84.0752	147.949	84.1593	147.949	84.0157	147.949	84.0871	147.949	83.963	147.949	84.0168	147.949	83.9255	147.949	83.9586	147.949	83.9102	147.949	83.9213
153.809	84.5745	153.809	84.5361	153.809	84.5975	153.809	84.483	153.809	84.6062	153.809	84.4176	153.809	84.603	153.809	84.3442	153.809	84.5911	153.809	84.268	153.809	84.5734	153.809	84.1945	153.809	84.5521	153.809	84.1285	153.809	84.528	153.809	84.0733	153.809	84.5007	153.809	84.0297	153.809	84.4686	153.809	83.9966	153.809	84.4298	153.809	83.9713	153.809	84.3824	153.809	83.9508	153.809	84.3254	153.809	83.933	153.809	84.2594	153.809	83.9175	153.809	84.1869	153.809	83.9064	153.809	84.1126	153.809	83.9034	153.809	84.0426	153.809	83.9133	153.809	83.9833	153.809	83.9395
159.668	84.8021	159.668	84.7991	159.668	84.7906	159.668	84.7813	159.668	84.7655	159.668	84.7489	159.668	84.7286	159.668	84.7026	159.668	84.6823	159.668	84.6436	159.668	84.6299	159.668	84.5734	159.668	84.5743	159.668	84.4943	159.668	84.5185	159.668	84.4092	159.668	84.4641	159.668	84.3213	159.668	84.4115	159.668	84.2339	159.668	84.3602	159.668	84.1502	159.668	84.3083	159.668	84.0728	159.668	84.254	159.668	84.0042	159.668	84.1954	159.668	83.9474	159.668	84.1322	159.668	83.9056	159.668	84.066	159.668	83.8826	159.668	84.0013	159.668	83.8814	159.668	83.9446	159.668	83.9029
165.527	84.8327	165.527	84.8247	165.527	84.8279	165.527	84.8054	165.527	84.8096	165.527	84.7769	165.527	84.7788	165.527	84.7417	165.527	84.7373	165.527	84.7017	165.527	84.6883	165.527	84.6583	165.527	84.6354	165.527	84.6121	165.527	84.582	165.527	84.5631	165.527	84.5308	165.527	84.5112	165.527	84.4834	165.527	84.4565	165.527	84.4395	165.527	84.3995	165.527	84.3979	165.527	84.3414	165.527	84.3569	165.527	84.2842	165.527	84.3147	165.527	84.2307	165.527	84.2709	165.527	84.1849	165.527	84.2269	165.527	84.1513	165.527	84.1862	165.527	84.1341	165.527	84.1539	165.527	84.1352
171.387	84.825	171.387	84.8201	171.387	84.8145	171.387	84.8007	171.387	84.7887	171.387	84.7684	171.387	84.7485	171.387	84.7249	171.387	84.6955	171.387	84.6723	171.387	84.6324	171.387	84.6123	171.387	84.5622	171.387	84.5459	171.387	84.4886	171.387	84.4741	171.387	84.4146	171.387	84.3977	171.387	84.3426	171.387	84.3177	171.387	84.2739	171.387	84.2357	171.387	84.2083	171.387	84.1541	171.387	84.1448	171.387	84.0758	171.387	84.0826	171.387	84.0045	171.387	84.0221	171.387	83.944	171.387	83.9656	171.387	83.8986	171.387	83.9175	171.387	83.8721	171.387	83.883	171.387	83.8669
177.246	84.6943	177.246	84.6992	177.246	84.6747	177.246	84.6896	177.246	84.6409	177.246	84.6664	177.246	84.5946	177.246	84.6316	177.246	84.5378	177.246	84.5869	177.246	84.4726	177.246	84.5342	177.246	84.4013	177.246	84.4745	177.246	84.3259	177.246	84.4081	177.246	84.2481	177.246	84.3345	177.246	84.1688	177.246	84.2529	177.246	84.0886	177.246	84.1627	177.246	84.0075	177.246	84.0648	177.246	83.9258	177.246	83.9622	177.246	83.8445	177.246	83.8602	177.246	83.7667	177.246	83.7662	177.246	83.6974	177.246	83.6883	177.246	83.6435	177.246	83.6339	177.246	83.6119	177.246	83.6079
183.105	84.6232	183.105	84.6277	183.105	84.6024	183.105	84.6168	183.105	84.5661	183.105	84.5921	183.105	84.5161	183.105	84.556	183.105	84.4552	183.105	84.5111	183.105	84.387	183.105	84.4598	183.105	84.3148	183.105	84.4041	183.105	84.2415	183.105	84.3455	183.105	84.1696	183.105	84.2849	183.105	84.1005	183.105	84.2231	183.105	84.0353	183.105	84.1601	183.105	83.9745	183.105	84.096	183.105	83.9183	183.105	84.031	183.105	83.8673	183.105	83.9661	183.105	83.8231	183.105	83.9037	183.105	83.7882	183.105	83.8476	183.105	83.7661	183.105	83.8025	183.105	83.7602	183.105	83.7725
188.965	84.6334	188.965	84.6192	188.965	84.6229	188.965	84.5821	188.965	84.5882	188.965	84.5263	188.965	84.5326	188.965	84.4573	188.965	84.4611	188.965	84.3814	188.965	84.3803	188.965	84.3044	188.965	84.2967	188.965	84.2305	188.965	84.2158	188.965	84.162	188.965	84.1408	188.965	84.099	188.965	84.0729	188.965	84.0405	188.965	84.0119	188.965	83.9858	188.965	83.9571	188.965	83.935	188.965	83.9087	188.965	83.8897	188.965	83.8675	188.965	83.8522	188.965	83.8349	188.965	83.8242	188.965	83.8117	188.965	83.8056	188.965	83.7975	188.965	83.795	188.965	83.791	188.965	83.7904
196.289	85.0064	196.289	84.9953	196.289	84.989	196.289	84.9576	196.289	84.9423	196.289	84.896	196.289	84.8672	196.289	84.8141	196.289	84.7663	196.289	84.7155	196.289	84.644	196.289	84.604	196.289	84.5065	196.289	84.4824	196.289	84.3611	196.289	84.353	196.289	84.2146	196.289	84.2178	196.289	84.0726	196.289	84.0789	196.289	83.9385	196.289	83.9398	196.289	83.8138	196.289	83.8052	196.289	83.6992	196.289	83.6808	196.289	83.596	196.289	83.5721	196.289	83.5069	196.289	83.4833	196.289	83.4355	196.289	83.4168	196.289	83.385	196.289	83.3736	196.289	83.3576	196.289	83.3538
203.613	84.763	203.613	84.747	203.613	84.7546	203.613	84.7067	203.613	84.7233	203.613	84.6434	203.613	84.671	203.613	84.5601	203.613	84.6003	203.613	84.4606	203.613	84.5138	203.613	84.3494	203.613	84.4141	203.613	84.2299	203.613	84.3031	203.613	84.1044	203.613	84.1826	203.613	83.9734	203.613	84.0533	203.613	83.837	203.613	83.9162	203.613	83.6969	203.613	83.7735	203.613	83.5581	203.613	83.6293	203.613	83.4289	203.613	83.4909	203.613	83.3187	203.613	83.3674	203.613	83.2346	203.613	83.2674	203.613	83.1783	203.613	83.1964	203.613	83.1476	203.613	83.1549	203.613	83.1397
210.938	84.8014	210.938	84.7843	210.938	84.7908	210.938	84.74	210.938	84.7545	210.938	84.6704	210.938	84.696	210.938	84.5788	210.938	84.6207	210.938	84.4691	210.938	84.5344	210.938	84.3458	210.938	84.4424	210.938	84.213	210.938	84.3484	210.938	84.0746	210.938	84.253	210.938	83.9343	210.938	84.1544	210.938	83.7955	210.938	84.0486	210.938	83.6617	210.938	83.9327	210.938	83.5377	210.938	83.8066	210.938	83.4289	210.938	83.6753	210.938	83.341	210.938	83.548	210.938	83.2782	210.938	83.4353	210.938	83.2418	210.938	83.3454	210.938	83.2309	210.938	83.2818	210.938	83.2442
218.262	84.7809	218.262	84.7619	218.262	84.7712	218.262	84.7152	218.262	84.7337	218.262	84.6443	218.262	84.6717	218.262	84.5539	218.262	84.5906	218.262	84.4494	218.262	84.4968	218.262	84.3362	218.262	84.3968	218.262	84.2182	218.262	84.2962	218.262	84.0981	218.262	84.1982	218.262	83.977	218.262	84.1037	218.262	83.856	218.262	84.0117	218.262	83.7384	218.262	83.9207	218.262	83.6309	218.262	83.8308	218.262	83.5424	218.262	83.7444	218.262	83.4807	218.262	83.6658	218.262	83.4487	218.262	83.5994	218.262	83.4426	218.262	83.547	218.262	83.4543	218.262	83.5072	218.262	83.4769
225.586	84.7296	225.586	84.7304	225.586	84.6916	225.586	84.6953	225.586	84.6178	225.586	84.628	225.586	84.513	225.586	84.5341	225.586	84.3848	225.586	84.4196	225.586	84.2427	225.586	84.2908	225.586	84.0966	225.586	84.1534	225.586	83.9547	225.586	84.0122	225.586	83.8226	225.586	83.8713	225.586	83.7026	225.586	83.7342	225.586	83.5953	225.586	83.605	225.586	83.5016	225.586	83.4906	225.586	83.4241	225.586	83.3997	225.586	83.3669	225.586	83.3404	225.586	83.3329	225.586	83.3146	225.586	83.3209	225.586	83.3144	225.586	83.3241	225.586	83.3252	225.586	83.3315	225.586	83.333
232.91	84.6907	232.91	84.6692	232.91	84.6745	232.91	84.6135	232.91	84.6189	232.91	84.5284	232.91	84.5247	232.91	84.4196	232.91	84.3947	232.91	84.2919	232.91	84.2339	232.91	84.1495	232.91	84.0489	232.91	83.9948	232.91	83.8472	232.91	83.8298	232.91	83.6361	232.91	83.6567	232.91	83.4226	232.91	83.4793	232.91	83.214	232.91	83.3036	232.91	83.0192	232.91	83.1379	232.91	82.8494	232.91	82.992	232.91	82.7172	232.91	82.8743	232.91	82.6319	232.91	82.7887	232.91	82.5947	232.91	82.731	232.91	82.5966	232.91	82.6902	232.91	82.6217	232.91	82.6551
241.699	84.6939	241.699	84.6741	241.699	84.6761	241.699	84.6196	241.699	84.6206	241.699	84.5351	241.699	84.5298	241.699	84.427	241.699	84.4084	241.699	84.3013	241.699	84.2627	241.699	84.1628	241.699	84.099	241.699	84.014	241.699	83.9228	241.699	83.8553	241.699	83.7374	241.699	83.6868	241.699	83.5455	241.699	83.5107	241.699	83.3509	241.699	83.333	241.699	83.1612	241.699	83.1634	241.699	82.9888	241.699	83.0131	241.699	82.8479	241.699	82.8915	241.699	82.7489	241.699	82.8031	241.699	82.6934	241.699	82.7454	241.699	82.6731	241.699	82.7104	241.699	82.675	241.699	82.6886
250.488	84.8427	250.488	84.8117	250.488	84.8249	250.488	84.7368	250.488	84.7559	250.488	84.6248	250.488	84.6363	250.488	84.4838	250.488	84.4693	250.488	84.3221	250.488	84.261	250.488	84.1473	250.488	84.0198	250.488	83.9651	250.488	83.7561	250.488	83.7794	250.488	83.482	250.488	83.5937	250.488	83.2108	250.488	83.4121	250.488	82.9562	250.488	83.2406	250.488	82.7318	250.488	83.0853	250.488	82.5505	250.488	82.95	250.488	82.4225	250.488	82.8347	250.488	82.353	250.488	82.7361	250.488	82.3387	250.488	82.6493	250.488	82.3679	250.488	82.5697	250.488	82.4245	250.488	82.4943
259.277	84.7403	259.277	84.6914	259.277	84.7512	259.277	84.6098	259.277	84.721	259.277	84.5024	259.277	84.65	259.277	84.3766	259.277	84.542	259.277	84.2388	259.277	84.4025	259.277	84.0927	259.277	84.238	259.277	83.9394	259.277	84.053	259.277	83.7775	259.277	83.8498	259.277	83.6064	259.277	83.6302	259.277	83.4301	259.277	83.4001	259.277	83.2591	259.277	83.1726	259.277	83.108	259.277	82.9692	259.277	82.9895	259.277	82.8133	259.277	82.9086	259.277	82.7207	259.277	82.8603	259.277	82.6907	259.277	82.8322	259.277	82.7062	259.277	82.8095	259.277	82.743	259.277	82.7806
268.066	84.6117	268.066	84.5676	268.066	84.6043	268.066	84.4715	268.066	84.5491	268.066	84.3278	268.066	84.4514	268.066	84.1471	268.066	84.3169	268.066	83.9459	268.066	84.1523	268.066	83.7417	268.066	83.9648	268.066	83.548	268.066	83.7613	268.066	83.3694	268.066	83.547	268.066	83.2024	268.066	83.3248	268.066	83.0428	268.066	83.0988	268.066	82.8923	268.066	82.8798	268.066	82.7611	268.066	82.689	268.066	82.6621	268.066	82.5533	268.066	82.6041	268.066	82.4909	268.066	82.5863	268.066	82.4974	268.066	82.5968	268.066	82.5441	268.066	82.6152	268.066	82.5934	268.066	82.6188
276.855	84.8233	276.855	84.8134	276.855	84.8075	276.855	84.774	276.855	84.7641	276.855	84.6953	276.855	84.687	276.855	84.5646	276.855	84.5684	276.855	84.3721	276.855	84.4	276.855	84.1188	276.855	84.1771	276.855	83.8212	276.855	83.9035	276.855	83.5095	276.855	83.5966	276.855	83.2188	276.855	83.2861	276.855	82.9769	276.855	83.0047	276.855	82.7968	276.855	82.7756	276.855	82.6781	276.855	82.6057	276.855	82.6124	276.855	82.4922	276.855	82.5876	276.855	82.4338	276.855	82.5895	276.855	82.4304	276.855	82.6011	276.855	82.472	276.855	82.6038	276.855	82.5326	276.855	82.582
287.109	84.5224	287.109	84.4967	287.109	84.5006	287.109	84.4279	287.109	84.4305	287.109	84.3237	287.109	84.3166	287.109	84.1918	287.109	84.1693	287.109	84.0365	287.109	84.0025	287.109	83.8557	287.109	83.8283	287.109	83.6429	287.109	83.6481	287.109	83.3962	287.109	83.4503	287.109	83.1302	287.109	83.2188	287.109	82.8805	287.109	82.9509	287.109	82.692	287.109	82.6722	287.109	82.5924	287.109	82.4335	287.109	82.5711	287.109	82.2826	287.109	82.5872	287.109	82.233	287.109	82.5971	287.109	82.2581	287.109	82.5772	287.109	82.3189	287.109	82.5277	287.109	82.3899	287.109	82.4614
297.363	84.8395	297.363	84.8008	297.363	84.8129	297.363	84.7066	297.363	84.7176	297.363	84.5724	297.363	84.5565	297.363	84.4162	297.363	84.3373	297.363	84.2526	297.363	84.0712	297.363	84.0859	297.363	83.7718	297.363	83.9036	297.363	83.4535	297.363	83.6802	297.363	83.1287	297.363	83.3919	297.363	82.8043	297.363	83.0405	297.363	82.4825	297.363	82.6745	297.363	82.168	297.363	82.3883	297.363	81.8829	297.363	82.2731	297.363	81.6751	297.363	82.3406	297.363	81.6043	297.363	82.5019	297.363	81.7028	297.363	82.6311	297.363	81.9417	297.363	82.6381	297.363	82.2388	297.363	82.4965
307.617	84.4738	307.617	84.3567	307.617	84.5435	307.617	84.1886	307.617	84.5705	307.617	83.9722	307.617	84.5577	307.617	83.7213	307.617	84.5048	307.617	83.4638	307.617	84.4094	307.617	83.2372	307.617	84.2692	307.617	83.0743	307.617	84.0835	307.617	82.9805	307.617	83.8526	307.617	82.9205	307.617	83.5766	307.617	82.8312	307.617	83.254	307.617	82.6536	307.617	82.8855	307.617	82.3671	307.617	82.4806	307.617	82.0082	307.617	82.0668	307.617	81.6626	307.617	81.6931	307.617	81.4167	307.617	81.4161	307.617	81.2963	307.617	81.267	307.617	81.2559	307.617	81.226	307.617	81.2365
319.336	84.1331	319.336	84.0093	319.336	84.1793	319.336	83.8174	319.336	84.1458	319.336	83.5696	319.336	84.0403	319.336	83.2783	319.336	83.881	319.336	82.9543	319.336	83.6939	319.336	82.6124	319.336	83.5065	319.336	82.2792	319.336	83.3389	319.336	81.9997	319.336	83.1974	319.336	81.8243	319.336	83.0754	319.336	81.7748	319.336	82.959	319.336	81.8198	319.336	82.8355	319.336	81.8916	319.336	82.6969	319.336	81.9302	319.336	82.5398	319.336	81.9156	319.336	82.3667	319.336	81.8672	319.336	82.1888	319.336	81.8203	319.336	82.0268	319.336	81.8025	319.336	81.9025	319.336	81.8278
329.59	84.3759	329.59	84.2965	329.59	84.3635	329.59	84.1241	329.59	84.2616	329.59	83.8602	329.59	84.0752	329.59	83.5126	329.59	83.8157	329.59	83.099	329.59	83.504	329.59	82.6488	329.59	83.1741	329.59	82.2039	329.59	82.8708	329.59	81.821	329.59	82.6407	329.59	81.5679	329.59	82.5137	329.59	81.4989	329.59	82.4882	329.59	81.6135	329.59	82.5323	329.59	81.8418	329.59	82.6027	329.59	82.0851	329.59	82.6637	329.59	82.2732	329.59	82.6962	329.59	82.3886	329.59	82.6953	329.59	82.4542	329.59	82.6648	329.59	82.5036	329.59	82.6143	329.59	82.5568
341.309	84.7668	341.309	84.7628	341.309	84.6711	341.309	84.655	341.309	84.4818	341.309	84.4415	341.309	84.2079	341.309	84.125	341.309	83.8639	341.309	83.7161	341.309	83.4722	341.309	83.2333	341.309	83.0642	341.309	82.7005	341.309	82.6778	341.309	82.1461	341.309	82.3501	341.309	81.6155	341.309	82.1093	341.309	81.1897	341.309	81.9707	341.309	80.9764	341.309	81.9415	341.309	81.0411	341.309	82.0205	341.309	81.3386	341.309	82.1885	341.309	81.7418	341.309	82.4009	341.309	82.1303	341.309	82.6002	341.309	82.4385	341.309	82.7395	341.309	82.6488	341.309	82.7962	341.309	82.7661
353.027	85.1806	353.027	85.1354	353.027	85.1613	353.027	85.0235	353.027	85.0715	353.027	84.8372	353.027	84.8967	353.027	84.5675	353.027	84.6167	353.027	84.2105	353.027	84.2116	353.027	83.7726	353.027	83.6741	353.027	83.2728	353.027	83.0277	353.027	82.7394	353.027	82.3444	353.027	82.2092	353.027	81.7424	353.027	81.7366	353.027	81.3384	353.027	81.4035	353.027	81.1794	353.027	81.2934	353.027	81.233	353.027	81.4261	353.027	81.441	353.027	81.7263	353.027	81.7524	353.027	82.0769	353.027	82.107	353.027	82.3867	353.027	82.4256	353.027	82.6034	353.027	82.6344	353.027	82.6937
366.211	85.6032	366.211	85.4942	366.211	85.6287	366.211	85.3152	366.211	85.558	366.211	85.0735	366.211	85.3843	366.211	84.7668	366.211	85.1084	366.211	84.385	366.211	84.7333	366.211	83.9205	366.211	84.2567	366.211	83.382	366.211	83.6687	366.211	82.8033	366.211	82.964	366.211	82.2406	366.211	82.1735	366.211	81.7572	366.211	81.4013	366.211	81.4137	366.211	80.8251	366.211	81.2694	366.211	80.6008	366.211	81.3664	366.211	80.7312	366.211	81.675	366.211	81.0825	366.211	82.0721	366.211	81.514	366.211	82.4039	366.211	81.937	366.211	82.5636	366.211	82.2911	366.211	82.5178
379.395	85.458	379.395	85.4562	379.395	85.4096	379.395	85.3994	379.395	85.3151	379.395	85.281	379.395	85.177	379.395	85.091	379.395	84.9981	379.395	84.8142	379.395	84.7825	379.395	84.432	379.395	84.534	379.395	83.9334	379.395	84.2472	379.395	83.333	379.395	83.8998	379.395	82.6869	379.395	83.4631	379.395	82.0898	379.395	82.9371	379.395	81.6392	379.395	82.3916	379.395	81.3926	379.395	81.9696	379.395	81.3611	379.395	81.8085	379.395	81.5294	379.395	81.9276	379.395	81.8537	379.395	82.2184	379.395	82.2447	379.395	82.5308	379.395	82.5823	379.395	82.7389	379.395	82.7628
392.578	85.1832	392.578	85.1385	392.578	85.1552	392.578	85.0199	392.578	85.0569	392.578	84.8294	392.578	84.8884	392.578	84.5725	392.578	84.6462	392.578	84.2546	392.578	84.3249	392.578	83.8756	392.578	83.9219	392.578	83.427	392.578	83.4432	392.578	82.8991	392.578	82.9073	392.578	82.3021	392.578	82.347	392.578	81.6963	392.578	81.8114	392.578	81.208	392.578	81.3681	392.578	80.9825	392.578	81.0976	392.578	81.0702	392.578	81.0612	392.578	81.3741	392.578	81.253	392.578	81.7386	392.578	81.5853	392.578	82.0484	392.578	81.9323	392.578	82.2444	392.578	82.1882	392.578	82.2961
405.762	84.7736	405.762	84.7297	405.762	84.7468	405.762	84.6131	405.762	84.6498	405.762	84.4216	405.762	84.4819	405.762	84.1542	405.762	84.2429	405.762	83.812	405.762	83.934	405.762	83.3964	405.762	83.5568	405.762	82.9093	405.762	83.1095	405.762	82.3579	405.762	82.5878	405.762	81.7657	405.762	81.9981	405.762	81.1871	405.762	81.3872	405.762	80.7179	405.762	80.8673	405.762	80.4784	405.762	80.5845	405.762	80.5455	405.762	80.606	405.762	80.8684	405.762	80.8508	405.762	81.2823	405.762	81.1709	405.762	81.62	405.762	81.4615	405.762	81.7945	405.762	81.6795	405.762	81.8021
420.41	85.2185	420.41	85.1568	420.41	85.2034	420.41	85.0133	420.41	85.1252	420.41	84.7957	420.41	84.9975	420.41	84.5215	420.41	84.8253	420.41	84.2057	420.41	84.5993	420.41	83.8431	420.41	84.2963	420.41	83.3995	420.41	83.8854	420.41	82.8287	420.41	83.3344	420.41	82.114	420.41	82.6155	420.41	81.321	420.41	81.7227	420.41	80.6215	420.41	80.7175	420.41	80.221	420.41	79.7956	420.41	80.198	420.41	79.2775	420.41	80.4528	420.41	79.3602	420.41	80.8205	420.41	79.8855	420.41	81.1586	420.41	80.527	420.41	81.3551	420.41	81.0456	420.41	81.3296
435.059	84.6296	435.059	84.5897	435.059	84.6184	435.059	84.5023	435.059	84.5433	435.059	84.3576	435.059	84.3931	435.059	84.1379	435.059	84.1659	435.059	83.8302	435.059	83.8678	435.059	83.4343	435.059	83.5056	435.059	82.9581	435.059	83.0798	435.059	82.3995	435.059	82.5887	435.059	81.7445	435.059	82.0424	435.059	81.0124	435.059	81.4844	435.059	80.3385	435.059	81.0053	435.059	79.9856	435.059	80.7278	435.059	80.1294	435.059	80.7386	435.059	80.6305	435.059	81.0085	435.059	81.1988	435.059	81.3993	435.059	81.6488	435.059	81.7562	435.059	81.928	435.059	81.9805	435.059	82.0382
451.172	85.1068	451.172	85.0814	451.172	85.072	451.172	85	451.172	84.9666	451.172	84.8513	451.172	84.7827	451.172	84.6123	451.172	84.516	451.172	84.2653	451.172	84.1592	451.172	83.8098	451.172	83.6999	451.172	83.2556	451.172	83.1249	451.172	82.5973	451.172	82.4271	451.172	81.7992	451.172	81.6068	451.172	80.8286	451.172	80.6738	451.172	79.757	451.172	79.6829	451.172	78.9029	451.172	78.8356	451.172	78.7543	451.172	78.5172	451.172	79.3861	451.172	78.9345	451.172	80.3066	451.172	79.7752	451.172	81.0592	451.172	80.6027	451.172	81.4618	451.172	81.1988	451.172	81.497
465.82	84.7587	465.82	84.6511	465.82	84.8114	465.82	84.5101	465.82	84.7913	465.82	84.3552	465.82	84.6871	465.82	84.1911	465.82	84.4969	465.82	83.995	465.82	84.227	465.82	83.7197	465.82	83.881	465.82	83.3153	465.82	83.4462	465.82	82.7562	465.82	82.8901	465.82	82.0533	465.82	82.1735	465.82	81.2535	465.82	81.274	465.82	80.4389	465.82	80.2226	465.82	79.7442	465.82	79.1597	465.82	79.3502	465.82	78.3871	465.82	79.3706	465.82	78.241	465.82	79.7141	465.82	78.7248	465.82	80.1428	465.82	79.4702	465.82	80.4325	465.82	80.1059	465.82	80.4402
483.398	84.3545	483.398	84.2845	483.398	84.3253	483.398	84.1348	483.398	84.2084	483.398	83.9454	483.398	84.037	483.398	83.7483	483.398	83.8462	483.398	83.5402	483.398	83.6562	483.398	83.2782	483.398	83.4614	483.398	82.8983	483.398	83.2227	483.398	82.3381	483.398	82.8668	483.398	81.5508	483.398	82.3091	483.398	80.5235	483.398	81.5044	483.398	79.3379	483.398	80.5149	483.398	78.3112	483.398	79.568	483.398	78.004	483.398	79.0137	483.398	78.6019	483.398	79.0684	483.398	79.5763	483.398	79.5855	483.398	80.3971	483.398	80.2269	483.398	80.8649	483.398	80.7306	483.398	80.9639
499.512	84.272	499.512	84.2195	499.512	84.2251	499.512	84.0612	499.512	84.0999	499.512	83.8188	499.512	83.9137	499.512	83.5369	499.512	83.6732	499.512	83.2518	499.512	83.3848	499.512	82.9575	499.512	83.066	499.512	82.6056	499.512	82.7296	499.512	82.1439	499.512	82.3412	499.512	81.5498	499.512	81.8036	499.512	80.8336	499.512	81.0147	499.512	80.0323	499.512	79.9756	499.512	79.2365	499.512	78.9118	499.512	78.6542	499.512	78.2716	499.512	78.5566	499.512	78.333	499.512	78.9816	499.512	78.8735	499.512	79.6186	499.512	79.519	499.512	80.1064	499.512	80.0275	499.512	80.2511
517.09	83.7061	517.09	83.703	517.09	83.6445	517.09	83.6227	517.09	83.5251	517.09	83.4534	517.09	83.3614	517.09	83.204	517.09	83.1794	517.09	82.9085	517.09	82.9937	517.09	82.5992	517.09	82.7792	517.09	82.2571	517.09	82.4818	517.09	81.7863	517.09	82.055	517.09	81.0573	517.09	81.4666	517.09	80.0185	517.09	80.6736	517.09	78.8626	517.09	79.6358	517.09	78.1171	517.09	78.4593	517.09	78.2026	517.09	77.6451	517.09	78.862	517.09	77.816	517.09	79.6119	517.09	78.7429	517.09	80.2075	517.09	79.7119	517.09	80.5648	517.09	80.3618	517.09	80.6335
536.133	83.9676	536.133	83.8443	536.133	83.983	536.133	83.6424	536.133	83.8601	536.133	83.3799	536.133	83.584	536.133	83.0609	536.133	83.1761	536.133	82.6846	536.133	82.7078	536.133	82.2576	536.133	82.2751	536.133	81.7905	536.133	81.9229	536.133	81.2694	536.133	81.5841	536.133	80.6193	536.133	81.1135	536.133	79.7187	536.133	80.3825	536.133	78.5191	536.133	79.3725	536.133	77.3177	536.133	78.2799	536.133	76.948	536.133	77.5712	536.133	77.8044	536.133	77.6684	536.133	79.0942	536.133	78.4301	536.133	80.097	536.133	79.3736	536.133	80.5934	536.133	80.1494	536.133	80.5878
555.176	84.6619	555.176	84.5768	555.176	84.6125	555.176	84.3663	555.176	84.4569	555.176	84.0789	555.176	84.2332	555.176	83.7765	555.176	83.9651	555.176	83.4935	555.176	83.6615	555.176	83.2026	555.176	83.3258	555.176	82.8181	555.176	82.9375	555.176	82.2284	555.176	82.4285	555.176	81.3243	555.176	81.7017	555.176	80.0221	555.176	80.6871	555.176	78.3387	555.176	79.384	555.176	76.6093	555.176	77.9056	555.176	75.7035	555.176	76.6368	555.176	76.1907	555.176	76.3151	555.176	77.4152	555.176	77.1506	555.176	78.6003	555.176	78.3609	555.176	79.3878	555.176	79.2697	555.176	79.6278
574.219	84.6339	574.219	84.4993	574.219	84.6435	574.219	84.2541	574.219	84.535	574.219	83.9306	574.219	84.3307	574.219	83.5703	574.219	84.0536	574.219	83.2147	574.219	83.7124	574.219	82.8967	574.219	83.3132	574.219	82.6128	574.219	82.8799	574.219	82.29	574.219	82.4302	574.219	81.7868	574.219	81.9066	574.219	80.9301	574.219	81.1592	574.219	79.5629	574.219	80.0293	574.219	77.6902	574.219	78.4997	574.219	75.9979	574.219	76.946	574.219	75.9678	574.219	76.252	574.219	77.3101	574.219	76.8101	574.219	78.5563	574.219	77.8803	574.219	79.2001	574.219	78.776	574.219	79.2461
594.727	84.5747	594.727	84.4665	594.727	84.5399	594.727	84.2218	594.727	84.3641	594.727	83.8655	594.727	84.0599	594.727	83.4456	594.727	83.6642	594.727	83.0184	594.727	83.2387	594.727	82.6142	594.727	82.8372	594.727	82.219	594.727	82.4669	594.727	81.7842	594.727	82.0993	594.727	81.24	594.727	81.6932	594.727	80.5093	594.727	81.1465	594.727	79.5546	594.727	80.2632	594.727	78.4715	594.727	78.9111	594.727	77.6162	594.727	77.4558	594.727	77.5042	594.727	77.0341	594.727	78.1791	594.727	77.9617	594.727	79.1051	594.727	79.1447	594.727	79.8221	594.727	79.9081	594.727	80.1215
615.234	84.6619	615.234	84.5891	615.234	84.5899	615.234	84.3544	615.234	84.4058	615.234	83.9777	615.234	84.1402	615.234	83.5269	615.234	83.8157	615.234	83.0937	615.234	83.4625	615.234	82.7292	615.234	83.1245	615.234	82.3901	615.234	82.8164	615.234	81.9507	615.234	82.4669	615.234	81.2563	615.234	81.9317	615.234	80.1653	615.234	81.0733	615.234	78.5985	615.234	79.8476	615.234	76.747	615.234	78.3921	615.234	75.554	615.234	77.1259	615.234	76.0581	615.234	76.6271	615.234	77.4656	615.234	77.0102	615.234	78.6541	615.234	77.8186	615.234	79.2363	615.234	78.6324	615.234	79.1816
637.207	85.2219	637.207	85.0599	637.207	85.2542	637.207	84.7877	637.207	85.1192	637.207	84.4105	637.207	84.7933	637.207	83.9566	637.207	84.3095	637.207	83.4934	637.207	83.7701	637.207	83.0878	637.207	83.2884	637.207	82.7446	637.207	82.8894	637.207	82.3772	637.207	82.4875	637.207	81.831	637.207	81.9526	637.207	80.9389	637.207	81.1411	637.207	79.5587	637.207	79.8985	637.207	77.6489	637.207	78.1732	637.207	75.8766	637.207	76.4152	637.207	76.2007	637.207	75.9533	637.207	78.152	637.207	77.2596	637.207	79.7757	637.207	79.0021	637.207	80.6359	637.207	80.257	637.207	80.7955
659.18	84.9276	659.18	84.7188	659.18	84.9596	659.18	84.4152	659.18	84.7855	659.18	84.0664	659.18	84.4633	659.18	83.6617	659.18	84.0897	659.18	83.2131	659.18	83.7208	659.18	82.8078	659.18	83.3748	659.18	82.5057	659.18	83.1023	659.18	82.2188	659.18	82.9309	659.18	81.7295	659.18	82.707	659.18	80.8034	659.18	82.1501	659.18	79.3547	659.18	81.0534	659.18	77.6292	659.18	79.3922	659.18	76.2947	659.18	77.4727	659.18	76.2063	659.18	76.2909	659.18	77.387	659.18	76.7479	659.18	78.7857	659.18	78.012	659.18	79.6212	659.18	79.1095	659.18	79.7014
682.617	85.3603	682.617	85.259	682.617	85.2735	682.617	84.9124	682.617	85.0608	682.617	84.3446	682.617	84.7335	682.617	83.6936	682.617	84.2622	682.617	83.1407	682.617	83.6528	682.617	82.7789	682.617	83.0243	682.617	82.5665	682.617	82.5527	682.617	82.3992	682.617	82.2676	682.617	82.1626	682.617	81.9796	682.617	81.6294	682.617	81.4099	682.617	80.4202	682.617	80.2819	682.617	78.366	682.617	78.4153	682.617	76.524	682.617	76.2241	682.617	76.9077	682.617	75.6772	682.617	78.4697	682.617	77.3914	682.617	79.7455	682.617	79.2343	682.617	80.4859	682.617	80.3321	682.617	80.6993
707.52	86.0995	707.52	85.9693	707.52	86.0301	707.52	85.643	707.52	85.7578	707.52	85.1327	707.52	85.3001	707.52	84.4873	707.52	84.7304	707.52	83.8167	707.52	84.1601	707.52	83.2584	707.52	83.6563	707.52	82.8459	707.52	83.2397	707.52	82.4009	707.52	82.9514	707.52	81.6602	707.52	82.7316	707.52	80.4703	707.52	82.2939	707.52	78.7173	707.52	81.2454	707.52	76.1795	707.52	79.1517	707.52	73.4315	707.52	75.5422	707.52	73.9703	707.52	72.1809	707.52	76.8786	707.52	75.1024	707.52	79.1437	707.52	78.4356	707.52	80.4137	707.52	80.1963	707.52	80.7736
732.422	85.4571	732.422	85.2927	732.422	85.4552	732.422	84.9681	732.422	85.2567	732.422	84.4936	732.422	84.8232	732.422	83.919	732.422	84.1562	732.422	83.3244	732.422	83.3367	732.422	82.8152	732.422	82.5564	732.422	82.5355	732.422	82.0958	732.422	82.5133	732.422	82.072	732.422	82.4427	732.422	82.2122	732.422	81.8516	732.422	82.0816	732.422	80.4383	732.422	81.3087	732.422	78.1277	732.422	79.6192	732.422	75.0196	732.422	77.1249	732.422	73.3655	732.422	75.155	732.422	76.123	732.422	75.3666	732.422	78.7895	732.422	76.9801	732.422	79.9346	732.422	78.7042	732.422	79.8103
757.324	85.8085	757.324	85.6681	757.324	85.7756	757.324	85.3402	757.324	85.4833	757.324	84.7349	757.324	84.8777	757.324	83.8187	757.324	84.0559	757.324	82.7399	757.324	83.1901	757.324	81.8523	757.324	82.3909	757.324	81.4571	757.324	81.768	757.324	81.4212	757.324	81.4763	757.324	81.3713	757.324	81.4353	757.324	81.0056	757.324	81.2373	757.324	79.9737	757.324	80.4329	757.324	77.8608	757.324	78.5899	757.324	74.8949	757.324	75.0213	757.324	73.963	757.324	69.8005	757.324	76.2347	757.324	73.0446	757.324	78.5474	757.324	77.3269	757.324	79.8055	757.324	79.3116	757.324	80.0124
785.156	85.5672	785.156	85.4245	785.156	85.4046	785.156	84.9625	785.156	85.0403	785.156	84.2744	785.156	84.551	785.156	83.4483	785.156	83.9373	785.156	82.5062	785.156	83.1922	785.156	81.634	785.156	82.3241	785.156	81.3356	785.156	81.4713	785.156	81.6961	785.156	81.0802	785.156	82.0072	785.156	81.2707	785.156	81.6632	785.156	81.3625	785.156	80.3907	785.156	80.711	785.156	77.8516	785.156	78.8902	785.156	73.6808	785.156	75.45	785.156	71.3871	785.156	71.8043	785.156	74.681	785.156	73.7128	785.156	77.2943	785.156	76.585	785.156	78.5766	785.156	78.196	785.156	78.8331
811.523	84.4687	811.523	84.4314	811.523	84.4585	811.523	84.234	811.523	84.3659	811.523	83.7794	811.523	84.0668	811.523	83.0581	811.523	83.4862	811.523	82.0006	811.523	82.5432	811.523	80.5821	811.523	81.1755	811.523	79.3242	811.523	79.8258	811.523	79.0298	811.523	79.4663	811.523	79.5475	811.523	79.9351	811.523	80.0879	811.523	80.399	811.523	79.7473	811.523	80.4371	811.523	77.707	811.523	79.4594	811.523	73.7107	811.523	76.8342	811.523	72.146	811.523	72.8331	811.523	75.7985	811.523	73.2168	811.523	78.4614	811.523	76.9722	811.523	79.6164	811.523	79.092	811.523	79.7932
840.82	84.9104	840.82	84.8673	840.82	84.9251	840.82	84.8052	840.82	84.7108	840.82	84.4282	840.82	84.2131	840.82	83.5481	840.82	83.5112	840.82	82.3935	840.82	82.6311	840.82	81.3333	840.82	81.5704	840.82	80.5693	840.82	80.5647	840.82	80.4714	840.82	80.0394	840.82	80.8351	840.82	80.1053	840.82	80.7555	840.82	80.3932	840.82	79.7573	840.82	80.0946	840.82	77.4736	840.82	78.4982	840.82	72.7279	840.82	75.0565	840.82	63.1329	840.82	69.5154	840.82	71.4411	840.82	71.0369	840.82	75.8859	840.82	76.0458	840.82	77.5783	840.82	78.1232	840.82	78.2922
870.117	85.1556	870.117	85.1272	870.117	85.0536	870.117	84.8947	870.117	84.9271	870.117	84.5134	870.117	84.6657	870.117	83.8636	870.117	84.0783	870.117	82.5999	870.117	83.1557	870.117	80.5965	870.117	81.8409	870.117	78.6943	870.117	79.962	870.117	78.3214	870.117	78.5819	870.117	78.5515	870.117	79.1856	870.117	78.5322	870.117	80.2388	870.117	78.6482	870.117	80.656	870.117	78.1162	870.117	79.9504	870.117	75.6503	870.117	77.05	870.117	71.6126	870.117	71.8684	870.117	72.8268	870.117	72.6328	870.117	76.6056	870.117	75.529	870.117	78.2433	870.117	77.1524	870.117	78.1521
900.879	84.8235	900.879	84.9643	900.879	84.7205	900.879	85.045	900.879	84.6462	900.879	84.8273	900.879	84.5021	900.879	84.1807	900.879	84.0602	900.879	83.1924	900.879	83.1695	900.879	81.7922	900.879	81.8275	900.879	79.7772	900.879	80.0174	900.879	78.1553	900.879	78.1943	900.879	78.575	900.879	78.1632	900.879	79.559	900.879	79.4819	900.879	79.6288	900.879	79.9767	900.879	78.0618	900.879	78.9832	900.879	73.4838	900.879	75.98	900.879	61.0825	900.879	68.3726	900.879	71.2749	900.879	69.5	900.879	76.5087	900.879	76.6159	900.879	78.6975	900.879	79.0248	900.879	79.4408
933.105	85.2183	933.105	85.0685	933.105	85.2811	933.105	84.9174	933.105	85.1833	933.105	84.7603	933.105	84.8235	933.105	84.424	933.105	84.2776	933.105	83.6943	933.105	83.8527	933.105	82.265	933.105	83.3404	933.105	80.0808	933.105	81.9098	933.105	78.7743	933.105	79.5272	933.105	79.3875	933.105	78.2045	933.105	80.0842	933.105	78.8804	933.105	80.2653	933.105	80.017	933.105	79.4459	933.105	79.8609	933.105	76.913	933.105	76.9116	933.105	70.7224	933.105	69.315	933.105	60.5327	933.105	66.6505	933.105	74.281	933.105	73.8601	933.105	77.582	933.105	77.17	933.105	78.2129
965.332	85.5205	965.332	85.3545	965.332	85.4998	965.332	85.03	965.332	85.3073	965.332	84.5677	965.332	85.0365	965.332	84.0505	965.332	84.559	965.332	83.5366	965.332	83.6244	965.332	82.7281	965.332	82.4467	965.332	80.9316	965.332	81.1392	965.332	78.1246	965.332	79.2814	965.332	77.4181	965.332	77.9772	965.332	78.9803	965.332	78.4399	965.332	79.6645	965.332	79.4147	965.332	78.6729	965.332	79.8098	965.332	75.0444	965.332	77.8039	965.332	67.601	965.332	70.4364	965.332	66.7405	965.332	59.9853	965.332	73.8478	965.332	71.6888	965.332	77.7816	965.332	76.0758	965.332	78.2896
1,000.49	84.5022	1,000.49	84.55	1,000.49	84.2787	1,000.49	84.3238	1,000.49	84.0804	1,000.49	83.9665	1,000.49	83.9369	1,000.49	83.7255	1,000.49	83.671	1,000.49	83.3883	1,000.49	83.2297	1,000.49	82.3592	1,000.49	82.6319	1,000.49	80.5215	1,000.49	81.5018	1,000.49	78.4092	1,000.49	79.2125	1,000.49	77.4319	1,000.49	76.4941	1,000.49	79.0526	1,000.49	77.6585	1,000.49	81.0245	1,000.49	79.9167	1,000.49	81.3658	1,000.49	80.4202	1,000.49	79.3436	1,000.49	79.1764	1,000.49	73.5487	1,000.49	75.4065	1,000.49	59.3754	1,000.49	63.2194	1,000.49	72.8136	1,000.49	69.5717	1,000.49	76.4456	1,000.49	75.6666	1,000.49	77.2105
1,035.64	84.8455	1,035.64	84.5676	1,035.64	84.8188	1,035.64	83.88	1,035.64	84.4367	1,035.64	82.9857	1,035.64	83.6712	1,035.64	82.4063	1,035.64	82.7671	1,035.64	82.1913	1,035.64	82.2595	1,035.64	81.792	1,035.64	82.1656	1,035.64	80.3879	1,035.64	81.316	1,035.64	77.6436	1,035.64	79.1416	1,035.64	74.7995	1,035.64	76.1715	1,035.64	75.3879	1,035.64	74.0688	1,035.64	78.129	1,035.64	78.075	1,035.64	78.7443	1,035.64	80.5449	1,035.64	76.7796	1,035.64	79.375	1,035.64	72.6166	1,035.64	74.9774	1,035.64	64.5705	1,035.64	65.506	1,035.64	71.2626	1,035.64	65.6204	1,035.64	76.1157	1,035.64	74.2105	1,035.64	76.7708
1,072.27	84.9632	1,072.27	84.6558	1,072.27	84.8119	1,072.27	84.0116	1,072.27	84.34	1,072.27	83.0453	1,072.27	83.7489	1,072.27	81.7883	1,072.27	82.9061	1,072.27	81.1815	1,072.27	81.7283	1,072.27	81.1272	1,072.27	81.2361	1,072.27	80.1928	1,072.27	81.3003	1,072.27	78.8277	1,072.27	79.8062	1,072.27	77.8206	1,072.27	77.026	1,072.27	76.1885	1,072.27	75.2157	1,072.27	77.4551	1,072.27	74.3875	1,072.27	79.0137	1,072.27	76.6254	1,072.27	78.1061	1,072.27	77.0661	1,072.27	75.8291	1,072.27	73.3864	1,072.27	70.895	1,072.27	65.3202	1,072.27	63.6689	1,072.27	62.5279	1,072.27	70.1909	1,072.27	67.3725	1,072.27	70.3225
1,108.89	84.8333	1,108.89	84.5654	1,108.89	84.7494	1,108.89	83.9085	1,108.89	84.3759	1,108.89	82.5899	1,108.89	83.9493	1,108.89	80.8408	1,108.89	83.3205	1,108.89	79.8247	1,108.89	82.2056	1,108.89	80.2081	1,108.89	81.0736	1,108.89	79.687	1,108.89	80.6171	1,108.89	76.4557	1,108.89	79.6549	1,108.89	74.7763	1,108.89	77.8317	1,108.89	75.9284	1,108.89	75.3314	1,108.89	76.1498	1,108.89	71.5442	1,108.89	76.1359	1,108.89	73.9907	1,108.89	74.2757	1,108.89	75.2717	1,108.89	71.6966	1,108.89	72.2659	1,108.89	67.5631	1,108.89	65.8172	1,108.89	63.2817	1,108.89	66.1559	1,108.89	69.9018	1,108.89	69.7908	1,108.89	70.7027
1,148.44	85.4695	1,148.44	85.1838	1,148.44	85.3969	1,148.44	84.5148	1,148.44	84.9138	1,148.44	83.794	1,148.44	83.8331	1,148.44	82.6187	1,148.44	82.8411	1,148.44	80.7257	1,148.44	82.0843	1,148.44	79.6762	1,148.44	80.5027	1,148.44	78.7977	1,148.44	79.2235	1,148.44	76.2472	1,148.44	78.9142	1,148.44	73.6851	1,148.44	76.9174	1,148.44	73.626	1,148.44	74.6379	1,148.44	75.0607	1,148.44	75.693	1,148.44	76.3455	1,148.44	76.7075	1,148.44	75.186	1,148.44	76.272	1,148.44	72.5043	1,148.44	73.635	1,148.44	68.1715	1,148.44	69.5903	1,148.44	68.5249	1,148.44	67.2687	1,148.44	73.948	1,148.44	72.246	1,148.44	74.7568
1,189.45	85.6095	1,189.45	84.9511	1,189.45	85.4333	1,189.45	84.2451	1,189.45	84.7398	1,189.45	83.8018	1,189.45	84.3215	1,189.45	83.3781	1,189.45	83.8773	1,189.45	82.6726	1,189.45	83.0955	1,189.45	81.3267	1,189.45	82.1418	1,189.45	80.4974	1,189.45	81.1784	1,189.45	79.6045	1,189.45	79.8398	1,189.45	77.1673	1,189.45	78.0317	1,189.45	75.1891	1,189.45	77.0394	1,189.45	75.0501	1,189.45	75.5848	1,189.45	77.4957	1,189.45	76.4378	1,189.45	77.4208	1,189.45	77.9042	1,189.45	73.8666	1,189.45	75.3906	1,189.45	68.3908	1,189.45	68.4754	1,189.45	70.9436	1,189.45	70.6196	1,189.45	74.1238	1,189.45	74.3557	1,189.45	74.5869
1,230.47	85.8924	1,230.47	85.7303	1,230.47	85.8349	1,230.47	85.074	1,230.47	85.5911	1,230.47	84.3299	1,230.47	84.8258	1,230.47	83.7621	1,230.47	83.6603	1,230.47	82.6649	1,230.47	82.7868	1,230.47	81.6755	1,230.47	82.1886	1,230.47	81.2081	1,230.47	81.3837	1,230.47	79.6695	1,230.47	81.1815	1,230.47	77.6114	1,230.47	80.1038	1,230.47	76.4559	1,230.47	77.7798	1,230.47	77.4837	1,230.47	77.2963	1,230.47	79.0196	1,230.47	77.888	1,230.47	78.1476	1,230.47	78.2835	1,230.47	74.4232	1,230.47	75.1637	1,230.47	68.4309	1,230.47	64.8394	1,230.47	66.81	1,230.47	67.8285	1,230.47	74.1973	1,230.47	72.8149	1,230.47	75.3583
1,274.41	86.0313	1,274.41	85.4566	1,274.41	85.8842	1,274.41	84.5106	1,274.41	85.2443	1,274.41	83.5872	1,274.41	84.5043	1,274.41	83.0595	1,274.41	83.7036	1,274.41	82.6099	1,274.41	82.5454	1,274.41	80.9826	1,274.41	80.7715	1,274.41	79.4039	1,274.41	79.573	1,274.41	78.8938	1,274.41	78.9932	1,274.41	76.6403	1,274.41	77.7514	1,274.41	74.8157	1,274.41	75.8193	1,274.41	75.0291	1,274.41	74.1066	1,274.41	76.0173	1,274.41	76.4392	1,274.41	75.8611	1,274.41	78.0582	1,274.41	72.5581	1,274.41	76.2525	1,274.41	66.5702	1,274.41	71.941	1,274.41	70.8143	1,274.41	67.1022	1,274.41	74.0377	1,274.41	71.6516	1,274.41	74.007
1,319.82	85.6158	1,319.82	85.2173	1,319.82	85.5797	1,319.82	84.7411	1,319.82	85.0529	1,319.82	84.124	1,319.82	84.3994	1,319.82	83.4172	1,319.82	83.3682	1,319.82	82.6778	1,319.82	82.2228	1,319.82	81.4769	1,319.82	81.6764	1,319.82	80.2189	1,319.82	80.1155	1,319.82	79.3793	1,319.82	78.3438	1,319.82	78.0666	1,319.82	78.0089	1,319.82	75.6743	1,319.82	76.3817	1,319.82	74.0031	1,319.82	75.9222	1,319.82	76.5222	1,319.82	77.9493	1,319.82	77.166	1,319.82	78.304	1,319.82	73.4749	1,319.82	75.5887	1,319.82	64.2803	1,319.82	67.2588	1,319.82	68.4332	1,319.82	68.1303	1,319.82	74.1061	1,319.82	72.702	1,319.82	74.8699
1,366.7	85.266	1,366.7	85.0196	1,366.7	85.1317	1,366.7	84.598	1,366.7	84.9309	1,366.7	84.074	1,366.7	84.5329	1,366.7	83.2115	1,366.7	83.4454	1,366.7	82.8017	1,366.7	82.0149	1,366.7	82.3183	1,366.7	80.9757	1,366.7	79.6059	1,366.7	79.6251	1,366.7	78.2303	1,366.7	77.2814	1,366.7	78.0384	1,366.7	74.716	1,366.7	74.5247	1,366.7	73.1756	1,366.7	73.9418	1,366.7	72.4824	1,366.7	74.696	1,366.7	73.4539	1,366.7	75.1126	1,366.7	76.9129	1,366.7	70.7841	1,366.7	75.2468	1,366.7	59.2977	1,366.7	66.0283	1,366.7	72.0156	1,366.7	69.8252	1,366.7	75.6095	1,366.7	74.4	1,366.7	76.0443
1,413.57	85.1825	1,413.57	85.2946	1,413.57	84.9452	1,413.57	84.9126	1,413.57	84.8712	1,413.57	83.7411	1,413.57	84.5771	1,413.57	82.0488	1,413.57	83.6371	1,413.57	80.5106	1,413.57	82.3962	1,413.57	79.3407	1,413.57	81.0782	1,413.57	78.6479	1,413.57	79.2739	1,413.57	77.5404	1,413.57	77.7401	1,413.57	75.4592	1,413.57	76.6964	1,413.57	73.007	1,413.57	75.1951	1,413.57	72.7047	1,413.57	73.1603	1,413.57	75.7606	1,413.57	75.2055	1,413.57	76.8124	1,413.57	76.6379	1,413.57	73.6544	1,413.57	75.2731	1,413.57	60.5478	1,413.57	68.0178	1,413.57	67.995	1,413.57	63.1447	1,413.57	73.4778	1,413.57	72.3098	1,413.57	74.8267
1,463.38	85.564	1,463.38	85.9874	1,463.38	85.5549	1,463.38	85.7305	1,463.38	85.4241	1,463.38	84.4962	1,463.38	84.6878	1,463.38	83.4826	1,463.38	83.9484	1,463.38	81.2357	1,463.38	82.9472	1,463.38	79.4952	1,463.38	81.1256	1,463.38	79.391	1,463.38	80.6966	1,463.38	77.2398	1,463.38	79.0671	1,463.38	76.9557	1,463.38	75.7582	1,463.38	74.3259	1,463.38	76.0044	1,463.38	70.982	1,463.38	76.4174	1,463.38	73.1258	1,463.38	76.7417	1,463.38	76.0055	1,463.38	78.5187	1,463.38	73.9553	1,463.38	77.6334	1,463.38	61.7241	1,463.38	70.9695	1,463.38	65.3302	1,463.38	58.6762	1,463.38	72.3863	1,463.38	69.5497	1,463.38	74.1226
1,516.11	86.5399	1,516.11	86.1863	1,516.11	86.3996	1,516.11	85.9625	1,516.11	85.8356	1,516.11	84.9392	1,516.11	85.1511	1,516.11	83.4363	1,516.11	84.3734	1,516.11	82.0563	1,516.11	82.758	1,516.11	80.1749	1,516.11	80.8813	1,516.11	79.5799	1,516.11	79.519	1,516.11	78.9109	1,516.11	77.6359	1,516.11	78.0829	1,516.11	76.42	1,516.11	76.0004	1,516.11	75.5719	1,516.11	72.4577	1,516.11	72.4786	1,516.11	74.0646	1,516.11	74.9598	1,516.11	76.411	1,516.11	78.1714	1,516.11	75.4983	1,516.11	77.4473	1,516.11	66.8014	1,516.11	71.8922	1,516.11	61.2236	1,516.11	58.1441	1,516.11	70.978	1,516.11	68.8469	1,516.11	72.7959
1,568.85	85.7299	1,568.85	85.5518	1,568.85	85.6257	1,568.85	85.4009	1,568.85	85.3618	1,568.85	84.534	1,568.85	84.8893	1,568.85	83.6476	1,568.85	83.5124	1,568.85	82.1621	1,568.85	81.9628	1,568.85	78.9806	1,568.85	80.3375	1,568.85	77.7822	1,568.85	78.0539	1,568.85	77.9907	1,568.85	76.0877	1,568.85	77.4753	1,568.85	74.4836	1,568.85	74.3816	1,568.85	71.8801	1,568.85	72.6919	1,568.85	65.257	1,568.85	72.436	1,568.85	70.2548	1,568.85	74.8267	1,568.85	75.6721	1,568.85	74.3232	1,568.85	77.574	1,568.85	67.6221	1,568.85	71.0866	1,568.85	61.7937	1,568.85	65.5949	1,568.85	72.0971	1,568.85	72.7268	1,568.85	74.4795
1,624.51	84.8125	1,624.51	84.6482	1,624.51	84.8578	1,624.51	84.5255	1,624.51	84.5868	1,624.51	84.1449	1,624.51	83.6	1,624.51	83.2121	1,624.51	82.5605	1,624.51	81.8175	1,624.51	81.6728	1,624.51	79.5031	1,624.51	79.9742	1,624.51	77.9577	1,624.51	77.8778	1,624.51	76.5071	1,624.51	74.8217	1,624.51	74.6779	1,624.51	73.3411	1,624.51	71.669	1,624.51	73.7863	1,624.51	68.9019	1,624.51	70.4798	1,624.51	66.7505	1,624.51	64.0043	1,624.51	71.9878	1,624.51	71.7196	1,624.51	73.8565	1,624.51	73.4466	1,624.51	66.5744	1,624.51	71.2698	1,624.51	58.7469	1,624.51	51.8928	1,624.51	67.805	1,624.51	70.1111	1,624.51	71.5649
1,681.64	84.8643	1,681.64	84.7371	1,681.64	84.2517	1,681.64	83.5093	1,681.64	84.2241	1,681.64	82.2853	1,681.64	83.0495	1,681.64	80.9081	1,681.64	81.705	1,681.64	80.1379	1,681.64	80.9217	1,681.64	79.2398	1,681.64	79.3359	1,681.64	76.832	1,681.64	78.2237	1,681.64	74.2908	1,681.64	75.7006	1,681.64	73.3472	1,681.64	74.6108	1,681.64	73.6894	1,681.64	75.2852	1,681.64	70.8995	1,681.64	70.7557	1,681.64	71.0932	1,681.64	68.7189	1,681.64	73.9773	1,681.64	74.5664	1,681.64	73.71	1,681.64	74.7954	1,681.64	69.167	1,681.64	73.3787	1,681.64	61.6915	1,681.64	64.2265	1,681.64	66.774	1,681.64	64.558	1,681.64	69.6624
1,741.7	85.8542	1,741.7	85.3695	1,741.7	85.7383	1,741.7	83.9618	1,741.7	85.1824	1,741.7	82.2682	1,741.7	83.8184	1,741.7	80.9639	1,741.7	82.5895	1,741.7	80.4294	1,741.7	81.3959	1,741.7	78.906	1,741.7	80.7952	1,741.7	76.6405	1,741.7	78.8115	1,741.7	74.4849	1,741.7	76.7503	1,741.7	74.7914	1,741.7	75.3219	1,741.7	75.5109	1,741.7	75.5598	1,741.7	70.0897	1,741.7	74.2455	1,741.7	71.9843	1,741.7	68.9922	1,741.7	75.0439	1,741.7	73.2128	1,741.7	76.6075	1,741.7	74.7679	1,741.7	72.5142	1,741.7	70.9518	1,741.7	43.7022	1,741.7	57.0314	1,741.7	69.0965	1,741.7	67.1672	1,741.7	71.2473
1,803.22	86.4014	1,803.22	85.4352	1,803.22	86.1145	1,803.22	84.7016	1,803.22	85.1921	1,803.22	83.3342	1,803.22	83.9515	1,803.22	81.3076	1,803.22	82.3937	1,803.22	80.8608	1,803.22	80.839	1,803.22	79.8378	1,803.22	79.604	1,803.22	77.9899	1,803.22	79.2223	1,803.22	76.3314	1,803.22	76.9108	1,803.22	75.4922	1,803.22	75.0731	1,803.22	74.2116	1,803.22	75.6268	1,803.22	71.4926	1,803.22	73.4525	1,803.22	71.6614	1,803.22	71.2547	1,803.22	74.4559	1,803.22	73.5044	1,803.22	75.4746	1,803.22	76.0754	1,803.22	72.2781	1,803.22	73.2082	1,803.22	54.6411	1,803.22	63.725	1,803.22	67.2835	1,803.22	67.6599	1,803.22	69.8939
1,866.21	85.9345	1,866.21	85.3157	1,866.21	86.236	1,866.21	84.4794	1,866.21	84.9605	1,866.21	83.8646	1,866.21	83.8252	1,866.21	82.0526	1,866.21	82.582	1,866.21	79.8371	1,866.21	81.3941	1,866.21	79.4512	1,866.21	79.5774	1,866.21	78.1648	1,866.21	78.4461	1,866.21	76.9518	1,866.21	76.2295	1,866.21	75.452	1,866.21	74.6698	1,866.21	73.9272	1,866.21	74.9978	1,866.21	71.5315	1,866.21	71.8489	1,866.21	71.7131	1,866.21	70.0527	1,866.21	73.8861	1,866.21	73.2658	1,866.21	77.2782	1,866.21	75.0914	1,866.21	72.6767	1,866.21	73.6892	1,866.21	62.2489	1,866.21	65.5744	1,866.21	63.1203	1,866.21	68.5471	1,866.21	68.28
1,932.13	84.7902	1,932.13	85.168	1,932.13	84.9724	1,932.13	84.0203	1,932.13	84.0262	1,932.13	83.6392	1,932.13	83.6936	1,932.13	81.4642	1,932.13	82.1553	1,932.13	79.7504	1,932.13	80.2506	1,932.13	77.9673	1,932.13	78.6815	1,932.13	77.5548	1,932.13	77.5648	1,932.13	78.4716	1,932.13	76.6351	1,932.13	75.1391	1,932.13	76.0779	1,932.13	73.4525	1,932.13	74.8314	1,932.13	71.8144	1,932.13	75.1173	1,932.13	68.8233	1,932.13	71.57	1,932.13	73.8643	1,932.13	70.3726	1,932.13	76.3634	1,932.13	72.9333	1,932.13	73.3948	1,932.13	73.8171	1,932.13	65.8962	1,932.13	69.2995	1,932.13	63.9633	1,932.13	61.7556	1,932.13	70.4477
1,999.51	85.4743	1,999.51	85.1858	1,999.51	85.5072	1,999.51	84.5809	1,999.51	85.331	1,999.51	83.3571	1,999.51	84.6397	1,999.51	82.3038	1,999.51	83.5295	1,999.51	80.6077	1,999.51	81.9295	1,999.51	78.6325	1,999.51	80.0233	1,999.51	77.0618	1,999.51	78.1209	1,999.51	76.0263	1,999.51	76.3827	1,999.51	74.639	1,999.51	75.6041	1,999.51	74.3519	1,999.51	74.0659	1,999.51	73.1924	1,999.51	73.7468	1,999.51	68.112	1,999.51	69.6622	1,999.51	70.2741	1,999.51	69.8367	1,999.51	74.4287	1,999.51	75.242	1,999.51	71.7918	1,999.51	74.9694	1,999.51	61.5458	1,999.51	69.2708	1,999.51	69.1321	1,999.51	52.2591	1,999.51	67.2775
2,069.82	86.4468	2,069.82	86.3041	2,069.82	86.5026	2,069.82	85.5108	2,069.82	86.0565	2,069.82	84.5438	2,069.82	85.0898	2,069.82	83.6386	2,069.82	84.2464	2,069.82	82.2507	2,069.82	82.8055	2,069.82	80.39	2,069.82	81.0219	2,069.82	78.3486	2,069.82	79.5564	2,069.82	77.0783	2,069.82	77.8981	2,069.82	76.2682	2,069.82	76.3818	2,069.82	75.7957	2,069.82	74.4821	2,069.82	74.1842	2,069.82	74.2601	2,069.82	70.0769	2,069.82	72.6681	2,069.82	71.5483	2,069.82	70.41	2,069.82	75.1592	2,069.82	74.9533	2,069.82	74.3405	2,069.82	75.0805	2,069.82	64.0521	2,069.82	68.82	2,069.82	65.6735	2,069.82	59.66	2,069.82	67.9265
2,143.07	86.1399	2,143.07	85.8237	2,143.07	86.0599	2,143.07	85.2476	2,143.07	85.4229	2,143.07	84.5438	2,143.07	84.6821	2,143.07	83.5592	2,143.07	83.7226	2,143.07	82.5653	2,143.07	82.458	2,143.07	81.2406	2,143.07	80.9025	2,143.07	78.921	2,143.07	79.3112	2,143.07	77.7245	2,143.07	77.3936	2,143.07	76.2224	2,143.07	75.9533	2,143.07	74.8435	2,143.07	73.9272	2,143.07	74.2976	2,143.07	74.1372	2,143.07	71.8308	2,143.07	71.7266	2,143.07	69.086	2,143.07	67.7123	2,143.07	75.2709	2,143.07	72.9928	2,143.07	75.2498	2,143.07	75.8955	2,143.07	67.5708	2,143.07	68.9409	2,143.07	66.7126	2,143.07	47.4026	2,143.07	70.6309
2,219.24	84.9605	2,219.24	84.5674	2,219.24	84.9912	2,219.24	84.1165	2,219.24	84.4793	2,219.24	83.1018	2,219.24	83.8787	2,219.24	82.4001	2,219.24	83.0755	2,219.24	81.5623	2,219.24	81.9467	2,219.24	79.9147	2,219.24	80.7532	2,219.24	78.7779	2,219.24	79.3331	2,219.24	76.789	2,219.24	77.6024	2,219.24	75.7497	2,219.24	75.7496	2,219.24	74.5773	2,219.24	74.7415	2,219.24	73.8945	2,219.24	73.8377	2,219.24	73.0014	2,219.24	72.9398	2,219.24	70.2842	2,219.24	68.7413	2,219.24	74.4169	2,219.24	72.3453	2,219.24	72.4984	2,219.24	74.7563	2,219.24	65.4354	2,219.24	70.5808	2,219.24	65.1335	2,219.24	62.5321	2,219.24	65.2504
2,296.88	85.4312	2,296.88	85.2293	2,296.88	85.4852	2,296.88	84.6123	2,296.88	84.9702	2,296.88	83.935	2,296.88	84.3643	2,296.88	82.8064	2,296.88	83.4842	2,296.88	81.7465	2,296.88	82.5557	2,296.88	80.2716	2,296.88	81.3561	2,296.88	78.8456	2,296.88	80.1329	2,296.88	77.1782	2,296.88	78.1831	2,296.88	75.7737	2,296.88	76.7868	2,296.88	74.1416	2,296.88	75.9862	2,296.88	71.8021	2,296.88	73.8442	2,296.88	70.1884	2,296.88	72.7227	2,296.88	69.8061	2,296.88	70.4284	2,296.88	73.0249	2,296.88	72.0224	2,296.88	73.8997	2,296.88	74.7648	2,296.88	62.6998	2,296.88	71.8253	2,296.88	59.4469	2,296.88	55.9669	2,296.88	68.9219
2,378.91	85.7408	2,378.91	85.5781	2,378.91	85.4213	2,378.91	85.1634	2,378.91	84.9804	2,378.91	84.5918	2,378.91	84.2231	2,378.91	83.5762	2,378.91	83.3323	2,378.91	82.2965	2,378.91	82.3607	2,378.91	80.9262	2,378.91	81.0325	2,378.91	79.0593	2,378.91	79.2434	2,378.91	77.0482	2,378.91	77.5598	2,378.91	75.1172	2,378.91	75.0731	2,378.91	74.0498	2,378.91	74.5554	2,378.91	73.6323	2,378.91	72.6	2,378.91	71.5148	2,378.91	73.1102	2,378.91	67.2866	2,378.91	69.1925	2,378.91	73.3444	2,378.91	71.4356	2,378.91	74.3249	2,378.91	74.5622	2,378.91	68.2543	2,378.91	70.2209	2,378.91	63.4076	2,378.91	53.9667	2,378.91	69.6571
2,462.4	85.3571	2,462.4	85.162	2,462.4	85.4259	2,462.4	84.6177	2,462.4	85.0238	2,462.4	83.3741	2,462.4	84.0593	2,462.4	82.4974	2,462.4	82.9854	2,462.4	81.3415	2,462.4	81.8595	2,462.4	80.2801	2,462.4	80.7272	2,462.4	78.6304	2,462.4	78.9038	2,462.4	76.7992	2,462.4	77.2301	2,462.4	75.1998	2,462.4	74.9468	2,462.4	74.2787	2,462.4	73.4928	2,462.4	73.8981	2,462.4	72.8192	2,462.4	71.9328	2,462.4	72.2216	2,462.4	68.3033	2,462.4	69.0165	2,462.4	70.7697	2,462.4	69.4212	2,462.4	72.5699	2,462.4	73.906	2,462.4	66.6017	2,462.4	73.5344	2,462.4	62.5516	2,462.4	63.8194	2,462.4	66.7437
2,548.83	85.5462	2,548.83	85.4771	2,548.83	85.6456	2,548.83	84.7797	2,548.83	85.3057	2,548.83	84	2,548.83	84.6739	2,548.83	82.7129	2,548.83	83.663	2,548.83	81.355	2,548.83	82.4545	2,548.83	80.0987	2,548.83	81.2228	2,548.83	77.5903	2,548.83	79.497	2,548.83	76.7633	2,548.83	77.9826	2,548.83	73.4713	2,548.83	76.1325	2,548.83	72.1377	2,548.83	73.9668	2,548.83	72.1423	2,548.83	73.5463	2,548.83	69.9974	2,548.83	70.6138	2,548.83	64.8735	2,548.83	70.5356	2,548.83	68.7313	2,548.83	68.7565	2,548.83	72.2772	2,548.83	73.9075	2,548.83	66.5188	2,548.83	71.3981	2,548.83	68.4236	2,548.83	61.8853	2,548.83	67.4118
2,639.65	85.0478	2,639.65	84.9847	2,639.65	84.8487	2,639.65	84.7584	2,639.65	84.5582	2,639.65	84.1698	2,639.65	84.0986	2,639.65	83.1343	2,639.65	83.2258	2,639.65	82.1474	2,639.65	82.2668	2,639.65	80.5713	2,639.65	80.8635	2,639.65	78.7834	2,639.65	79.0349	2,639.65	76.8385	2,639.65	77.0797	2,639.65	73.9692	2,639.65	75.3275	2,639.65	71.4817	2,639.65	72.8577	2,639.65	71.8529	2,639.65	72.6802	2,639.65	71.2006	2,639.65	71.3969	2,639.65	68.8738	2,639.65	69.7229	2,639.65	68.7383	2,639.65	66.6919	2,639.65	72.528	2,639.65	71.4191	2,639.65	66.3948	2,639.65	69.6392	2,639.65	67.798	2,639.65	57.4819	2,639.65	68.1169
2,731.93	84.3074	2,731.93	83.6579	2,731.93	84.104	2,731.93	83.8044	2,731.93	83.7378	2,731.93	83.5956	2,731.93	83.2706	2,731.93	82.7152	2,731.93	82.7153	2,731.93	81.6156	2,731.93	81.5075	2,731.93	79.6898	2,731.93	79.8551	2,731.93	78.3804	2,731.93	78.297	2,731.93	75.8274	2,731.93	76.1461	2,731.93	73.7874	2,731.93	74.7857	2,731.93	72.5898	2,731.93	72.6729	2,731.93	71.4355	2,731.93	70.2329	2,731.93	70.6656	2,731.93	68.0664	2,731.93	67.8169	2,731.93	68.3421	2,731.93	68.1147	2,731.93	67.6111	2,731.93	70.532	2,731.93	70.0523	2,731.93	67.1276	2,731.93	68.9675	2,731.93	55.6726	2,731.93	58.4306	2,731.93	60.338
2,828.61	84.5404	2,828.61	84.2148	2,828.61	84.4657	2,828.61	84.4898	2,828.61	84.4819	2,828.61	83.8626	2,828.61	84.0184	2,828.61	83.1723	2,828.61	83.3825	2,828.61	81.534	2,828.61	82.1749	2,828.61	79.5657	2,828.61	80.6166	2,828.61	77.5516	2,828.61	79.1238	2,828.61	75.6027	2,828.61	77.0898	2,828.61	74.175	2,828.61	75.4925	2,828.61	71.1991	2,828.61	72.5128	2,828.61	69.7054	2,828.61	71.334	2,828.61	69.4608	2,828.61	69.761	2,828.61	69.4573	2,828.61	68.6437	2,828.61	66.8814	2,828.61	66.4547	2,828.61	69.545	2,828.61	68.3502	2,828.61	68.6937	2,828.61	70.0062	2,828.61	64.6964	2,828.61	62.8745	2,828.61	65.7681
2,928.22	83.798	2,928.22	83.7557	2,928.22	83.7978	2,928.22	83.8728	2,928.22	83.7486	2,928.22	83.7754	2,928.22	83.6905	2,928.22	83.1326	2,928.22	83.1747	2,928.22	81.7196	2,928.22	82.1892	2,928.22	79.699	2,928.22	80.1509	2,928.22	77.4441	2,928.22	78.5375	2,928.22	75.135	2,928.22	76.0845	2,928.22	74.8292	2,928.22	74.0037	2,928.22	71.6596	2,928.22	71.4019	2,928.22	71.4543	2,928.22	69.3686	2,928.22	68.8872	2,928.22	70.3944	2,928.22	69.1907	2,928.22	67.7437	2,928.22	66.0677	2,928.22	67.1913	2,928.22	68.2008	2,928.22	69.173	2,928.22	66.7117	2,928.22	70.3905	2,928.22	57.0704	2,928.22	63.8122	2,928.22	63.4094
3,030.76	83.1801	3,030.76	83.5286	3,030.76	83.1267	3,030.76	83.4126	3,030.76	83.5546	3,030.76	83.3942	3,030.76	83.2219	3,030.76	82.6004	3,030.76	82.7601	3,030.76	81.5077	3,030.76	81.7709	3,030.76	79.1845	3,030.76	80.0543	3,030.76	77.3787	3,030.76	78.0281	3,030.76	74.7626	3,030.76	75.5609	3,030.76	73.5075	3,030.76	71.8164	3,030.76	71.5982	3,030.76	71.7671	3,030.76	70.9248	3,030.76	69.0285	3,030.76	69.3843	3,030.76	70.245	3,030.76	67.1849	3,030.76	66.1867	3,030.76	67.8361	3,030.76	68.8208	3,030.76	68.4877	3,030.76	67.3087	3,030.76	64.7365	3,030.76	69.7302	3,030.76	64.9393	3,030.76	64.6802	3,030.76	64.8158
3,137.7	83.696	3,137.7	84.1531	3,137.7	83.6672	3,137.7	84.2797	3,137.7	84.031	3,137.7	83.718	3,137.7	83.8815	3,137.7	82.8235	3,137.7	83.2777	3,137.7	81.737	3,137.7	82.3031	3,137.7	80.0006	3,137.7	80.4619	3,137.7	77.8457	3,137.7	78.2885	3,137.7	75.5738	3,137.7	76.1182	3,137.7	74.0801	3,137.7	73.2407	3,137.7	71.817	3,137.7	72.0902	3,137.7	69.5637	3,137.7	69.8747	3,137.7	69.38	3,137.7	69.8326	3,137.7	67.7219	3,137.7	68.0682	3,137.7	67.0278	3,137.7	69.2037	3,137.7	69.0323	3,137.7	66.4518	3,137.7	68.1262	3,137.7	68.7544	3,137.7	65.0294	3,137.7	63.8714	3,137.7	63.9757
3,249.02	83.9229	3,249.02	84.4238	3,249.02	83.7346	3,249.02	84.1708	3,249.02	84.0405	3,249.02	83.6836	3,249.02	83.8082	3,249.02	82.2298	3,249.02	83.3269	3,249.02	81.2988	3,249.02	81.901	3,249.02	79.9049	3,249.02	80.1083	3,249.02	77.5253	3,249.02	77.6265	3,249.02	74.5336	3,249.02	75.2789	3,249.02	73.3228	3,249.02	72.7472	3,249.02	71.2058	3,249.02	70.8338	3,249.02	66.8959	3,249.02	67.5922	3,249.02	69.0257	3,249.02	68.7917	3,249.02	68.018	3,249.02	68.1354	3,249.02	67.7796	3,249.02	67.6705	3,249.02	68.6195	3,249.02	67.5031	3,249.02	68.1389	3,249.02	68.0995	3,249.02	64.7581	3,249.02	62.6673	3,249.02	63.5267
3,363.28	84.3343	3,363.28	84.3028	3,363.28	84.2884	3,363.28	84.7348	3,363.28	84.0547	3,363.28	83.819	3,363.28	83.871	3,363.28	82.9527	3,363.28	82.8183	3,363.28	80.7565	3,363.28	81.2508	3,363.28	78.8259	3,363.28	79.3339	3,363.28	75.7213	3,363.28	76.9005	3,363.28	73.2321	3,363.28	74.3936	3,363.28	72.5897	3,363.28	73.3682	3,363.28	70.1111	3,363.28	70.1673	3,363.28	68.6799	3,363.28	67.8209	3,363.28	68.417	3,363.28	66.3702	3,363.28	67.4437	3,363.28	66.5134	3,363.28	67.1202	3,363.28	68.1118	3,363.28	66.9363	3,363.28	65.2664	3,363.28	67.2292	3,363.28	68.289	3,363.28	60.6982	3,363.28	63.744	3,363.28	63.0922
3,481.93	84.5468	3,481.93	84.9104	3,481.93	84.7296	3,481.93	84.8417	3,481.93	84.6272	3,481.93	84.3578	3,481.93	84.5103	3,481.93	83.5449	3,481.93	83.4256	3,481.93	81.2402	3,481.93	81.65	3,481.93	78.6529	3,481.93	79.6251	3,481.93	76.4661	3,481.93	76.7721	3,481.93	74.8637	3,481.93	74.445	3,481.93	72.2666	3,481.93	72.8525	3,481.93	70.2206	3,481.93	69.7233	3,481.93	67.5856	3,481.93	68.3441	3,481.93	67.5508	3,481.93	66.7608	3,481.93	65.9413	3,481.93	65.6297	3,481.93	68.3156	3,481.93	67.6389	3,481.93	67.8936	3,481.93	67.7218	3,481.93	66.2493	3,481.93	68.9254	3,481.93	63.5395	3,481.93	64.7859	3,481.93	65.4434
3,604.98	84.2808	3,604.98	84.6089	3,604.98	84.4114	3,604.98	84.4877	3,604.98	84.2974	3,604.98	84.3099	3,604.98	84.2373	3,604.98	83.3424	3,604.98	83.2979	3,604.98	81.4978	3,604.98	81.5539	3,604.98	78.5104	3,604.98	79.044	3,604.98	76.5887	3,604.98	76.3687	3,604.98	74.7368	3,604.98	74.9011	3,604.98	70.745	3,604.98	71.6155	3,604.98	70.5165	3,604.98	68.7126	3,604.98	67.5903	3,604.98	68.6884	3,604.98	67.5902	3,604.98	65.7107	3,604.98	65.7284	3,604.98	65.9665	3,604.98	69.0824	3,604.98	65.6049	3,604.98	66.7584	3,604.98	66.4919	3,604.98	67.3872	3,604.98	66.6851	3,604.98	65.4968	3,604.98	63.1858	3,604.98	65.5954
3,732.42	84.497	3,732.42	84.4522	3,732.42	84.1247	3,732.42	84.6644	3,732.42	84.7046	3,732.42	84.5868	3,732.42	84.2006	3,732.42	82.9509	3,732.42	83.2929	3,732.42	80.9057	3,732.42	81.6179	3,732.42	78.8736	3,732.42	79.5328	3,732.42	76.6954	3,732.42	76.9539	3,732.42	73.7465	3,732.42	74.3024	3,732.42	70.3743	3,732.42	71.8246	3,732.42	68.8766	3,732.42	69.8982	3,732.42	68.3385	3,732.42	68.4313	3,732.42	66.0207	3,732.42	67.048	3,732.42	65.4756	3,732.42	65.8603	3,732.42	66.6814	3,732.42	63.355	3,732.42	65.5257	3,732.42	67.7404	3,732.42	67.5128	3,732.42	67.0116	3,732.42	60.0297	3,732.42	61.9818	3,732.42	64.6947
3,864.26	84.6459	3,864.26	84.659	3,864.26	84.3004	3,864.26	84.8684	3,864.26	84.7039	3,864.26	84.4317	3,864.26	84.4767	3,864.26	82.8942	3,864.26	83.5998	3,864.26	80.1567	3,864.26	82.1698	3,864.26	78.6982	3,864.26	79.6237	3,864.26	75.4611	3,864.26	77.5141	3,864.26	72.5572	3,864.26	75.051	3,864.26	70.945	3,864.26	72.3526	3,864.26	67.1953	3,864.26	69.7612	3,864.26	68.2833	3,864.26	68.2409	3,864.26	65.9829	3,864.26	65.7059	3,864.26	65.3487	3,864.26	65.5518	3,864.26	65.7281	3,864.26	66.868	3,864.26	68.3139	3,864.26	67.0653	3,864.26	67.4596	3,864.26	68.4022	3,864.26	61.4407	3,864.26	63.8312	3,864.26	66.1558
4,000.49	83.7881	4,000.49	83.9551	4,000.49	84.3937	4,000.49	84.5772	4,000.49	84.0887	4,000.49	83.825	4,000.49	84.2743	4,000.49	82.1522	4,000.49	83.1676	4,000.49	80.1114	4,000.49	81.6277	4,000.49	76.9694	4,000.49	79.3476	4,000.49	73.8557	4,000.49	77.0098	4,000.49	72.6695	4,000.49	74.2009	4,000.49	69.4513	4,000.49	72.1279	4,000.49	68.7159	4,000.49	69.2208	4,000.49	64.7457	4,000.49	67.0336	4,000.49	65.7853	4,000.49	66.9795	4,000.49	62.8923	4,000.49	66.221	4,000.49	66.0303	4,000.49	64.8759	4,000.49	65.4476	4,000.49	65.5944	4,000.49	67.1772	4,000.49	68.6733	4,000.49	59.18	4,000.49	63.5465	4,000.49	64.7609
4,141.11	84.1784	4,141.11	84.4364	4,141.11	84.7187	4,141.11	83.7794	4,141.11	84.6359	4,141.11	83.1906	4,141.11	84.2803	4,141.11	81.8589	4,141.11	83.4885	4,141.11	81.0532	4,141.11	81.2492	4,141.11	76.7517	4,141.11	78.9302	4,141.11	75.2618	4,141.11	77.3356	4,141.11	72.3538	4,141.11	74.1552	4,141.11	71.9886	4,141.11	71.7435	4,141.11	67.6051	4,141.11	69.4209	4,141.11	64.7568	4,141.11	66.6967	4,141.11	65.6933	4,141.11	65.8005	4,141.11	65.7712	4,141.11	64.1356	4,141.11	66.6451	4,141.11	64.0227	4,141.11	66.0569	4,141.11	66.5691	4,141.11	68.1289	4,141.11	66.1295	4,141.11	60.2588	4,141.11	64.1347	4,141.11	62.6375
4,287.6	84.7648	4,287.6	85.2896	4,287.6	83.834	4,287.6	84.7424	4,287.6	84.891	4,287.6	83.5802	4,287.6	84.1275	4,287.6	82.7104	4,287.6	83.1733	4,287.6	79.7085	4,287.6	80.735	4,287.6	77.9604	4,287.6	79.0723	4,287.6	74.8799	4,287.6	75.7887	4,287.6	72.2273	4,287.6	73.1305	4,287.6	70.8186	4,287.6	71.8795	4,287.6	66.29	4,287.6	67.8566	4,287.6	64.7059	4,287.6	66.7519	4,287.6	62.1627	4,287.6	63.4	4,287.6	62.3953	4,287.6	65.2188	4,287.6	65.2174	4,287.6	64.9399	4,287.6	66.4359	4,287.6	66.2502	4,287.6	66.9555	4,287.6	67.8208	4,287.6	59.7438	4,287.6	64.1666	4,287.6	62.5118
4,438.48	84.0942	4,438.48	83.6557	4,438.48	84.5452	4,438.48	83.9086	4,438.48	83.6725	4,438.48	83.0104	4,438.48	83.2968	4,438.48	80.9401	4,438.48	81.5068	4,438.48	77.5362	4,438.48	80.0137	4,438.48	76.2592	4,438.48	77.7712	4,438.48	73.848	4,438.48	74.7707	4,438.48	72.7278	4,438.48	72.5702	4,438.48	68.9126	4,438.48	68.9367	4,438.48	67.8858	4,438.48	68.4534	4,438.48	63.6405	4,438.48	66.1385	4,438.48	63.7132	4,438.48	63.986	4,438.48	62.7916	4,438.48	63.0197	4,438.48	64.9394	4,438.48	59.8071	4,438.48	63.2987	4,438.48	65.5659	4,438.48	65.4627	4,438.48	65.7464	4,438.48	58.5192	4,438.48	62.7699	4,438.48	62.4384
4,595.21	85.2	4,595.21	84.5221	4,595.21	85.5864	4,595.21	83.9096	4,595.21	84.5242	4,595.21	82.9494	4,595.21	83.799	4,595.21	80.1857	4,595.21	82.7419	4,595.21	79.7051	4,595.21	80.7711	4,595.21	76.6082	4,595.21	77.4985	4,595.21	74.9008	4,595.21	74.8225	4,595.21	70.5925	4,595.21	72.2522	4,595.21	67.7799	4,595.21	70.3445	4,595.21	65.5575	4,595.21	68.5932	4,595.21	66.6411	4,595.21	66.4342	4,595.21	63.0266	4,595.21	63.7302	4,595.21	64.1656	4,595.21	63.3169	4,595.21	62.3956	4,595.21	63.3443	4,595.21	65.8132	4,595.21	64.8512	4,595.21	66.8675	4,595.21	63.9032	4,595.21	62.9323	4,595.21	62.4243	4,595.21	61.6492
4,756.35	84.8122	4,756.35	85.0225	4,756.35	83.8634	4,756.35	83.4913	4,756.35	84.3985	4,756.35	82.0567	4,756.35	83.5954	4,756.35	81.7076	4,756.35	82.5267	4,756.35	79.164	4,756.35	79.9676	4,756.35	77.1892	4,756.35	77.3652	4,756.35	73.9893	4,756.35	75.1325	4,756.35	69.5728	4,756.35	74.0465	4,756.35	70.2494	4,756.35	70.0627	4,756.35	69.6827	4,756.35	68.0776	4,756.35	68.2798	4,756.35	65.758	4,756.35	63.9995	4,756.35	62.7812	4,756.35	64.9387	4,756.35	63.3107	4,756.35	62.7392	4,756.35	61.3801	4,756.35	65.6025	4,756.35	63.8328	4,756.35	65.8853	4,756.35	64.325	4,756.35	62.5457	4,756.35	64.4645	4,756.35	62.4865
4,924.8	85.3665	4,924.8	85.0532	4,924.8	85.5498	4,924.8	84.2807	4,924.8	84.2659	4,924.8	83.6508	4,924.8	83.2315	4,924.8	82.5428	4,924.8	81.0247	4,924.8	80.4064	4,924.8	79.0196	4,924.8	78.1584	4,924.8	78.7503	4,924.8	75.1913	4,924.8	76.7198	4,924.8	73.992	4,924.8	72.5742	4,924.8	70.6613	4,924.8	71.2946	4,924.8	68.9074	4,924.8	68.1895	4,924.8	63.7005	4,924.8	66.4892	4,924.8	62.0133	4,924.8	63.7793	4,924.8	62.1835	4,924.8	60.7389	4,924.8	62.4535	4,924.8	58.8135	4,924.8	65.2208	4,924.8	66.0185	4,924.8	66.527	4,924.8	63.6992	4,924.8	60.9649	4,924.8	65.4978	4,924.8	61.1824
5,097.66	85.398	5,097.66	83.9244	5,097.66	85.4624	5,097.66	83.1231	5,097.66	83.7225	5,097.66	81.5349	5,097.66	82.207	5,097.66	79.4079	5,097.66	81.4379	5,097.66	78.2904	5,097.66	80.4854	5,097.66	76.6525	5,097.66	77.7965	5,097.66	74.2443	5,097.66	75.4872	5,097.66	73.1209	5,097.66	73.286	5,097.66	68.6168	5,097.66	70.1166	5,097.66	67.7202	5,097.66	68.9141	5,097.66	65.2223	5,097.66	64.4961	5,097.66	64.0442	5,097.66	64.0019	5,097.66	62.4016	5,097.66	62.3173	5,097.66	63.4494	5,097.66	62.7212	5,097.66	66.2866	5,097.66	65.1249	5,097.66	66.1699	5,097.66	65.8688	5,097.66	59.1764	5,097.66	64.9147	5,097.66	60.3678
5,277.83	85.1525	5,277.83	84.5661	5,277.83	84.3381	5,277.83	82.5229	5,277.83	83.4204	5,277.83	81.7157	5,277.83	82.1498	5,277.83	81.3641	5,277.83	81.4657	5,277.83	79.6265	5,277.83	80.1248	5,277.83	77.7802	5,277.83	78.3239	5,277.83	75.9956	5,277.83	74.6631	5,277.83	72.864	5,277.83	72.761	5,277.83	71.1538	5,277.83	69.0624	5,277.83	66.6755	5,277.83	67.4645	5,277.83	65.4231	5,277.83	66.5404	5,277.83	62.7938	5,277.83	63.8373	5,277.83	63.0358	5,277.83	64.9604	5,277.83	58.1976	5,277.83	63.2228	5,277.83	65.8196	5,277.83	64.6278	5,277.83	65.8956	5,277.83	64.1683	5,277.83	59.5702	5,277.83	65.7652	5,277.83	62.501
5,463.87	84.8646	5,463.87	84.1373	5,463.87	84.6674	5,463.87	82.8447	5,463.87	83.0084	5,463.87	82.1127	5,463.87	82.0427	5,463.87	81.2893	5,463.87	80.6651	5,463.87	79.9524	5,463.87	79.3664	5,463.87	77.2066	5,463.87	77.7438	5,463.87	74.3421	5,463.87	75.8605	5,463.87	71.5385	5,463.87	71.6124	5,463.87	68.7354	5,463.87	69.762	5,463.87	65.225	5,463.87	66.3473	5,463.87	61.3873	5,463.87	65.5383	5,463.87	61.7821	5,463.87	63.3163	5,463.87	61.0654	5,463.87	60.5938	5,463.87	60.1296	5,463.87	62.9402	5,463.87	65.7262	5,463.87	63.4421	5,463.87	62.4928	5,463.87	65.3326	5,463.87	58.0836	5,463.87	65.7163	5,463.87	59.1066
5,657.23	85.1519	5,657.23	83.9926	5,657.23	84.4415	5,657.23	82.2501	5,657.23	83.1549	5,657.23	81.5098	5,657.23	81.749	5,657.23	80.628	5,657.23	81.3575	5,657.23	78.7613	5,657.23	80.3227	5,657.23	76.4735	5,657.23	77.8895	5,657.23	74.3944	5,657.23	75.7121	5,657.23	71.7664	5,657.23	72.5931	5,657.23	67.1171	5,657.23	69.9666	5,657.23	66.3148	5,657.23	66.8414	5,657.23	63.7678	5,657.23	65.0027	5,657.23	64.4834	5,657.23	62.8101	5,657.23	61.0558	5,657.23	62.7509	5,657.23	62.8296	5,657.23	62.8492	5,657.23	63.7674	5,657.23	64.4684	5,657.23	63.0823	5,657.23	63.9395	5,657.23	61.2587	5,657.23	64.2197	5,657.23	56.8333
5,856.45	85.0823	5,856.45	83.9319	5,856.45	84.8199	5,856.45	82.0225	5,856.45	83.1585	5,856.45	81.5663	5,856.45	82.0283	5,856.45	80.767	5,856.45	81.2463	5,856.45	78.858	5,856.45	79.7693	5,856.45	76.449	5,856.45	77.4467	5,856.45	73.7708	5,856.45	74.3015	5,856.45	69.692	5,856.45	71.3866	5,856.45	67.8423	5,856.45	69.679	5,856.45	66.3105	5,856.45	66.8114	5,856.45	65.6733	5,856.45	65.44	5,856.45	63.2457	5,856.45	60.2778	5,856.45	62.2099	5,856.45	58.5711	5,856.45	56.9099	5,856.45	59.8474	5,856.45	62.999	5,856.45	60.6658	5,856.45	63.7735	5,856.45	61.2344	5,856.45	58.2201	5,856.45	63.0969	5,856.45	55.4452
6,062.99	85.2999	6,062.99	84.3073	6,062.99	84.8584	6,062.99	83.1978	6,062.99	83.013	6,062.99	82.0829	6,062.99	82.0199	6,062.99	81.0673	6,062.99	80.8274	6,062.99	78.5866	6,062.99	78.8782	6,062.99	75.316	6,062.99	76.6195	6,062.99	71.627	6,062.99	73.7944	6,062.99	69.8948	6,062.99	71.3489	6,062.99	67.6704	6,062.99	68.8154	6,062.99	67.9027	6,062.99	65.8114	6,062.99	62.6367	6,062.99	63.5037	6,062.99	59.3988	6,062.99	60.7051	6,062.99	61.586	6,062.99	59.8236	6,062.99	59.5836	6,062.99	60.2804	6,062.99	64.6265	6,062.99	61.6603	6,062.99	62.5277	6,062.99	62.5362	6,062.99	58.8225	6,062.99	62.3888	6,062.99	51.2531
6,276.86	85.7201	6,276.86	84.7334	6,276.86	85.3441	6,276.86	82.7968	6,276.86	83.6897	6,276.86	81.8918	6,276.86	82.2651	6,276.86	80.0154	6,276.86	81.3528	6,276.86	77.6186	6,276.86	79.4085	6,276.86	75.1111	6,276.86	76.5133	6,276.86	72.9041	6,276.86	74.1153	6,276.86	70.8519	6,276.86	71.1374	6,276.86	67.474	6,276.86	67.5588	6,276.86	62.6819	6,276.86	66.2906	6,276.86	62.4278	6,276.86	64.4791	6,276.86	59.5033	6,276.86	60.7515	6,276.86	57.9853	6,276.86	60.0832	6,276.86	60.067	6,276.86	55.664	6,276.86	62.8723	6,276.86	61.6754	6,276.86	62.9117	6,276.86	63.2094	6,276.86	59.3665	6,276.86	63.6738	6,276.86	52.4317
6,498.05	85.2612	6,498.05	84.1262	6,498.05	85.0469	6,498.05	82.3408	6,498.05	83.3402	6,498.05	80.951	6,498.05	81.9535	6,498.05	79.8204	6,498.05	80.0017	6,498.05	77.2908	6,498.05	77.5889	6,498.05	74.8057	6,498.05	75.7646	6,498.05	72.8582	6,498.05	73.3232	6,498.05	70.5505	6,498.05	69.9171	6,498.05	68.5337	6,498.05	68.498	6,498.05	64.7025	6,498.05	66.045	6,498.05	62.8315	6,498.05	63.9913	6,498.05	55.6465	6,498.05	60.9445	6,498.05	62.5998	6,498.05	56.9502	6,498.05	58.531	6,498.05	60.7752	6,498.05	61.1293	6,498.05	58.6333	6,498.05	62.9387	6,498.05	62.9554	6,498.05	57.0957	6,498.05	63.554	6,498.05	48.3193
6,726.56	85.1021	6,726.56	84.1124	6,726.56	84.5072	6,726.56	82.4779	6,726.56	83.0505	6,726.56	81.1317	6,726.56	81.0154	6,726.56	79.3598	6,726.56	79.2761	6,726.56	77.683	6,726.56	77.1344	6,726.56	75.3973	6,726.56	74.8544	6,726.56	73.5252	6,726.56	72.8547	6,726.56	70.7818	6,726.56	71.0174	6,726.56	67.0805	6,726.56	68.3903	6,726.56	66.6221	6,726.56	64.7211	6,726.56	63.7155	6,726.56	63.6936	6,726.56	60.4465	6,726.56	60.0614	6,726.56	58.9622	6,726.56	61.0158	6,726.56	59.7937	6,726.56	56.5481	6,726.56	62.9856	6,726.56	61.3008	6,726.56	61.9863	6,726.56	61.1753	6,726.56	56.6837	6,726.56	62.587	6,726.56	50.5386
6,963.87	85.1949	6,963.87	84.7319	6,963.87	84.9775	6,963.87	82.8485	6,963.87	82.958	6,963.87	80.7651	6,963.87	81.1163	6,963.87	78.8762	6,963.87	78.927	6,963.87	77.3621	6,963.87	76.6601	6,963.87	75.9444	6,963.87	75.636	6,963.87	73.7356	6,963.87	74.1851	6,963.87	69.5201	6,963.87	70.4559	6,963.87	67.9559	6,963.87	68.0474	6,963.87	64.985	6,963.87	65.4816	6,963.87	62.8906	6,963.87	62.4815	6,963.87	60.7368	6,963.87	60.3609	6,963.87	55.6217	6,963.87	56.3583	6,963.87	56.0739	6,963.87	59.4979	6,963.87	60.4359	6,963.87	57.8224	6,963.87	61.8586	6,963.87	60.3844	6,963.87	55.7021	6,963.87	62.4045	6,963.87	50.8973
7,209.96	85.4904	7,209.96	84.8302	7,209.96	84.7857	7,209.96	82.8198	7,209.96	83.4876	7,209.96	80.6048	7,209.96	80.7448	7,209.96	78.4778	7,209.96	78.5464	7,209.96	76.7765	7,209.96	77.268	7,209.96	74.8984	7,209.96	75.4085	7,209.96	71.5372	7,209.96	72.4242	7,209.96	69.1843	7,209.96	70.271	7,209.96	66.4432	7,209.96	67.832	7,209.96	62.8755	7,209.96	64.1092	7,209.96	61.4913	7,209.96	63.0357	7,209.96	60.3936	7,209.96	58.3449	7,209.96	57.8877	7,209.96	62.3461	7,209.96	59.0485	7,209.96	57.7196	7,209.96	60.722	7,209.96	58.4891	7,209.96	61.1799	7,209.96	60.5204	7,209.96	55.1903	7,209.96	59.3716	7,209.96	44.3219
7,464.84	84.8242	7,464.84	84.5522	7,464.84	84.9006	7,464.84	82.5589	7,464.84	83.3504	7,464.84	79.7815	7,464.84	80.6612	7,464.84	78.1433	7,464.84	78.0273	7,464.84	76.4734	7,464.84	76.9793	7,464.84	74.3884	7,464.84	75.9177	7,464.84	72.013	7,464.84	73.2434	7,464.84	69.4715	7,464.84	69.6884	7,464.84	66.3318	7,464.84	66.7528	7,464.84	63.5769	7,464.84	64.8765	7,464.84	62.8321	7,464.84	63.2915	7,464.84	59.0397	7,464.84	58.3919	7,464.84	54.5605	7,464.84	58.0597	7,464.84	57.3058	7,464.84	56.8662	7,464.84	60.4863	7,464.84	58.2447	7,464.84	60.2529	7,464.84	60.9038	7,464.84	53.4872	7,464.84	59.9936	7,464.84	37.2211
7,727.05	85.2889	7,727.05	84.8997	7,727.05	84.9189	7,727.05	82.7807	7,727.05	83.6383	7,727.05	79.8671	7,727.05	80.6415	7,727.05	78.0553	7,727.05	78.4068	7,727.05	76.7623	7,727.05	76.9526	7,727.05	74.6559	7,727.05	74.7377	7,727.05	71.4288	7,727.05	71.948	7,727.05	69.8862	7,727.05	70.1165	7,727.05	66.3214	7,727.05	66.8274	7,727.05	63.8194	7,727.05	64.7001	7,727.05	62.2912	7,727.05	61.1782	7,727.05	57.0578	7,727.05	60.8676	7,727.05	58.3546	7,727.05	57.1281	7,727.05	59.7827	7,727.05	57.0764	7,727.05	60.6121	7,727.05	56.0207	7,727.05	59.811	7,727.05	61.0009	7,727.05	56.4315	7,727.05	60.1704	7,727.05	45.3896
7,999.51	85.1956	7,999.51	84.9914	7,999.51	85.1	7,999.51	82.7798	7,999.51	83.477	7,999.51	79.9517	7,999.51	80.5813	7,999.51	78.2942	7,999.51	78.013	7,999.51	76.4583	7,999.51	76.8071	7,999.51	73.9077	7,999.51	74.6342	7,999.51	71.4036	7,999.51	71.9867	7,999.51	69.1097	7,999.51	69.3011	7,999.51	65.9477	7,999.51	66.1811	7,999.51	63.6596	7,999.51	64.6922	7,999.51	61.3236	7,999.51	62.5025	7,999.51	55.4716	7,999.51	59.8165	7,999.51	55.2182	7,999.51	54.9817	7,999.51	55.5629	7,999.51	52.6606	7,999.51	60.2881	7,999.51	53.6645	7,999.51	60.3604	7,999.51	61.5299	7,999.51	55.5082	7,999.51	58.0854	7,999.51	41.6133
8,282.23	85.1398	8,282.23	84.852	8,282.23	84.9056	8,282.23	82.5527	8,282.23	83.4475	8,282.23	79.6094	8,282.23	80.278	8,282.23	77.8567	8,282.23	77.6038	8,282.23	75.1846	8,282.23	75.7257	8,282.23	72.9923	8,282.23	72.9873	8,282.23	71.0203	8,282.23	71.632	8,282.23	68.6562	8,282.23	69.4484	8,282.23	64.9468	8,282.23	66.2027	8,282.23	62.3431	8,282.23	63.1515	8,282.23	59.7147	8,282.23	60.8195	8,282.23	56.491	8,282.23	57.2401	8,282.23	52.6434	8,282.23	56.8862	8,282.23	53.9312	8,282.23	52.5526	8,282.23	56.4028	8,282.23	55.9274	8,282.23	60.7576	8,282.23	61.059	8,282.23	55.788	8,282.23	60.2052	8,282.23	46.3466
8,573.73	84.6435	8,573.73	84.2756	8,573.73	84.5057	8,573.73	81.8354	8,573.73	82.5979	8,573.73	78.9681	8,573.73	79.4395	8,573.73	76.3404	8,573.73	77.0514	8,573.73	74.2336	8,573.73	74.7566	8,573.73	72.5347	8,573.73	73.2757	8,573.73	69.9194	8,573.73	70.9494	8,573.73	66.971	8,573.73	68.2884	8,573.73	64.3597	8,573.73	66.1558	8,573.73	61.5114	8,573.73	62.5341	8,573.73	59.1638	8,573.73	60.3337	8,573.73	55.9143	8,573.73	56.5193	8,573.73	53.7285	8,573.73	51.3774	8,573.73	48.7365	8,573.73	50.9948	8,573.73	54.2275	8,573.73	50.9066	8,573.73	58.973	8,573.73	60.1005	8,573.73	50.3486	8,573.73	55.9962	8,573.73	45.7276
8,876.95	84.2467	8,876.95	83.6853	8,876.95	84.0325	8,876.95	81.2361	8,876.95	82.2697	8,876.95	78.0075	8,876.95	79.2006	8,876.95	75.36	8,876.95	76.3379	8,876.95	72.7666	8,876.95	73.9372	8,876.95	71.4559	8,876.95	72.341	8,876.95	68.8847	8,876.95	71.0848	8,876.95	66.5839	8,876.95	68.1772	8,876.95	63.6264	8,876.95	64.7762	8,876.95	60.057	8,876.95	61.6447	8,876.95	58.633	8,876.95	58.2376	8,876.95	55.9653	8,876.95	57.2817	8,876.95	52.0767	8,876.95	53.3315	8,876.95	53.6227	8,876.95	50.9081	8,876.95	52.5284	8,876.95	51.7272	8,876.95	57.0431	8,876.95	58.6825	8,876.95	53.1494	8,876.95	56.8355	8,876.95	44.2528
9,188.96	83.9186	9,188.96	83.3335	9,188.96	83.6852	9,188.96	80.7594	9,188.96	81.7384	9,188.96	77.6429	9,188.96	78.7892	9,188.96	74.1125	9,188.96	75.3105	9,188.96	72.5487	9,188.96	73.1703	9,188.96	71.4821	9,188.96	72.7861	9,188.96	69.0369	9,188.96	70.7281	9,188.96	66.0084	9,188.96	67.4544	9,188.96	62.8553	9,188.96	64.2372	9,188.96	58.6208	9,188.96	61.0109	9,188.96	55.6753	9,188.96	57.1607	9,188.96	47.1278	9,188.96	56.5037	9,188.96	52.6224	9,188.96	51.8225	9,188.96	42.7083	9,188.96	45.4382	9,188.96	55.2926	9,188.96	48.9628	9,188.96	56.9189	9,188.96	58.2086	9,188.96	48.8185	9,188.96	54.9083	9,188.96	45.2681
9,514.16	83.883	9,514.16	82.8609	9,514.16	83.3178	9,514.16	80.0581	9,514.16	81.3339	9,514.16	76.7521	9,514.16	78.2506	9,514.16	74.1803	9,514.16	75.4975	9,514.16	73.2241	9,514.16	74.2718	9,514.16	72.0812	9,514.16	73.9859	9,514.16	68.9045	9,514.16	72.0372	9,514.16	66.0747	9,514.16	68.3465	9,514.16	60.0784	9,514.16	64.0517	9,514.16	60.0862	9,514.16	59.8399	9,514.16	55.3475	9,514.16	58.1826	9,514.16	55.6002	9,514.16	54.867	9,514.16	51.4796	9,514.16	52.1502	9,514.16	42.8617	9,514.16	46.8604	9,514.16	51.5309	9,514.16	47.7371	9,514.16	56.6907	9,514.16	56.6116	9,514.16	54.9544	9,514.16	56.2395	9,514.16	40.0767
9,849.61	83.7435	9,849.61	82.517	9,849.61	83.1808	9,849.61	80.2958	9,849.61	81.528	9,849.61	77.6326	9,849.61	79.2756	9,849.61	76.1299	9,849.61	77.1639	9,849.61	75.4365	9,849.61	76.5285	9,849.61	73.8032	9,849.61	75.4124	9,849.61	70.7836	9,849.61	72.6046	9,849.61	65.5792	9,849.61	67.9274	9,849.61	63.6321	9,849.61	65.4784	9,849.61	60.4716	9,849.61	62.4451	9,849.61	56.9663	9,849.61	58.892	9,849.61	57.2026	9,849.61	57.6024	9,849.61	53.6768	9,849.61	51.8603	9,849.61	46.079	9,849.61	50.1025	9,849.61	50.4997	9,849.61	52.1566	9,849.61	56.2862	9,849.61	56.7961	9,849.61	53.9818	9,849.61	55.7481	9,849.61	37.5879
10,196.8	83.9043	10,196.8	82.5899	10,196.8	83.3555	10,196.8	81.2202	10,196.8	82.0242	10,196.8	79.2993	10,196.8	80.5533	10,196.8	77.8838	10,196.8	78.6951	10,196.8	76.5485	10,196.8	77.6599	10,196.8	74.1052	10,196.8	76.0932	10,196.8	69.9812	10,196.8	72.4918	10,196.8	66.0634	10,196.8	69.2434	10,196.8	64.7519	10,196.8	66.0115	10,196.8	60.3316	10,196.8	62.2547	10,196.8	57.0587	10,196.8	60.5512	10,196.8	58.2835	10,196.8	58.3721	10,196.8	51.8315	10,196.8	55.0081	10,196.8	40.3846	10,196.8	51.0848	10,196.8	45.465	10,196.8	50.5479	10,196.8	54.8178	10,196.8	56.0861	10,196.8	53.6548	10,196.8	54.9322	10,196.8	38.7871
10,555.7	84.4673	10,555.7	83.1808	10,555.7	83.9808	10,555.7	81.9146	10,555.7	82.8461	10,555.7	79.9827	10,555.7	81.4218	10,555.7	78.4682	10,555.7	79.5501	10,555.7	76.5512	10,555.7	78.1009	10,555.7	74.0011	10,555.7	75.7689	10,555.7	70.2607	10,555.7	72.7655	10,555.7	66.1946	10,555.7	68.4093	10,555.7	63.3448	10,555.7	64.8992	10,555.7	59.1589	10,555.7	61.5156	10,555.7	57.2242	10,555.7	59.8523	10,555.7	57.0133	10,555.7	57.7992	10,555.7	50.1366	10,555.7	56.1232	10,555.7	48.8719	10,555.7	50.8822	10,555.7	42.9383	10,555.7	51.2816	10,555.7	54.1492	10,555.7	56.7377	10,555.7	51.9675	10,555.7	52.7912	10,555.7	43.9967
10,927.7	85.1726	10,927.7	84.0275	10,927.7	84.6903	10,927.7	82.5561	10,927.7	83.5702	10,927.7	80.607	10,927.7	81.8713	10,927.7	78.5385	10,927.7	79.848	10,927.7	75.9185	10,927.7	77.6495	10,927.7	73.1068	10,927.7	75.1101	10,927.7	69.5525	10,927.7	72.0616	10,927.7	65.6902	10,927.7	67.2345	10,927.7	61.0379	10,927.7	64.0146	10,927.7	59.9599	10,927.7	60.5359	10,927.7	55.5359	10,927.7	58.9249	10,927.7	55.8881	10,927.7	56.3822	10,927.7	49.2742	10,927.7	55.3432	10,927.7	48.5713	10,927.7	50.4566	10,927.7	45.5524	10,927.7	46.8901	10,927.7	53.3557	10,927.7	54.2912	10,927.7	51.2494	10,927.7	51.6345	10,927.7	38.4949
11,313	85.691	11,313	84.777	11,313	85.2539	11,313	83.1716	11,313	84.074	11,313	81.1729	11,313	82.2399	11,313	78.5376	11,313	79.8697	11,313	75.4514	11,313	76.9414	11,313	72.3913	11,313	74.2164	11,313	67.6765	11,313	70.1163	11,313	63.928	11,313	66.1613	11,313	61.9001	11,313	62.6961	11,313	57.7106	11,313	59.7439	11,313	54.8742	11,313	57.3413	11,313	55.6871	11,313	54.2754	11,313	51.416	11,313	54.4339	11,313	42.9773	11,313	51.6249	11,313	42.3128	11,313	41.7274	11,313	52.2895	11,313	52.1403	11,313	51.3963	11,313	50.608	11,313	42.6994
11,712.9	86.3592	11,712.9	85.395	11,712.9	86.0735	11,712.9	83.4365	11,712.9	84.723	11,712.9	81.2799	11,712.9	82.7015	11,712.9	78.021	11,712.9	79.8739	11,712.9	74.6674	11,712.9	76.7065	11,712.9	71.3212	11,712.9	73.6327	11,712.9	66.4251	11,712.9	69.6055	11,712.9	62.8004	11,712.9	65.8288	11,712.9	60.6648	11,712.9	62.2078	11,712.9	56.3502	11,712.9	58.8786	11,712.9	54.7834	11,712.9	57.0682	11,712.9	53.3593	11,712.9	53.3955	11,712.9	45.6231	11,712.9	54.0129	11,712.9	44.653	11,712.9	52.3767	11,712.9	39.7867	11,712.9	46.264	11,712.9	50.6918	11,712.9	50.6439	11,712.9	48.3887	11,712.9	46.6031	11,712.9	44.881
12,126	86.9191	12,126	85.9305	12,126	86.7063	12,126	83.7542	12,126	85.0774	12,126	81.0819	12,126	82.8707	12,126	77.3971	12,126	79.5744	12,126	73.5107	12,126	75.9615	12,126	69.8111	12,126	72.5484	12,126	65.1925	12,126	68.6006	12,126	61.93	12,126	65.3633	12,126	59.5708	12,126	61.9832	12,126	55.9285	12,126	57.7794	12,126	54.49	12,126	57.6343	12,126	52.067	12,126	52.1462	12,126	46.002	12,126	55.538	12,126	45.5694	12,126	51.2392	12,126	40.273	12,126	45.5925	12,126	51.7836	12,126	52.5995	12,126	47.9524	12,126	41.2608	12,126	42.8885
12,553.7	87.1038	12,553.7	85.8957	12,553.7	86.9398	12,553.7	83.4397	12,553.7	85.0732	12,553.7	80.3493	12,553.7	82.4909	12,553.7	76.5219	12,553.7	78.6939	12,553.7	71.6824	12,553.7	74.4629	12,553.7	67.7389	12,553.7	70.5004	12,553.7	63.7371	12,553.7	65.802	12,553.7	59.9478	12,553.7	63.5872	12,553.7	59.2884	12,553.7	60.5587	12,553.7	53.8236	12,553.7	57.8143	12,553.7	52.8842	12,553.7	55.7368	12,553.7	48.7527	12,553.7	52.3701	12,553.7	46.8831	12,553.7	54.083	12,553.7	45.9249	12,553.7	51.6597	12,553.7	42.7861	12,553.7	42.464	12,553.7	50.5968	12,553.7	51.492	12,553.7	48.1331	12,553.7	46.4527	12,553.7	43.0066
12,996.1	87.0863	12,996.1	85.708	12,996.1	86.8903	12,996.1	82.805	12,996.1	84.7517	12,996.1	79.0783	12,996.1	81.6793	12,996.1	74.8249	12,996.1	77.3365	12,996.1	68.4731	12,996.1	72.3547	12,996.1	64.2382	12,996.1	67.651	12,996.1	61.2454	12,996.1	65.6037	12,996.1	58.637	12,996.1	62.1979	12,996.1	58.4418	12,996.1	60.0844	12,996.1	52.261	12,996.1	57.4992	12,996.1	52.4669	12,996.1	54.1821	12,996.1	48.7363	12,996.1	50.7053	12,996.1	47.8975	12,996.1	54.4943	12,996.1	48.6279	12,996.1	53.1429	12,996.1	45.8342	12,996.1	44.4621	12,996.1	48.2011	12,996.1	50.8504	12,996.1	47.8962	12,996.1	46.5357	12,996.1	41.4085
13,454.6	86.6586	13,454.6	85.0375	13,454.6	86.5119	13,454.6	81.9339	13,454.6	84.3445	13,454.6	77.7793	13,454.6	81.0874	13,454.6	73.0238	13,454.6	76.2605	13,454.6	65.828	13,454.6	71.2664	13,454.6	63.4907	13,454.6	68.5616	13,454.6	61.9748	13,454.6	67.7407	13,454.6	58.2128	13,454.6	64.1957	13,454.6	56.9086	13,454.6	61.4381	13,454.6	53.6895	13,454.6	58.3528	13,454.6	52.6922	13,454.6	54.1396	13,454.6	48.4033	13,454.6	53.2041	13,454.6	48.5186	13,454.6	55.5169	13,454.6	49.485	13,454.6	52.7955	13,454.6	45.0701	13,454.6	41.5476	13,454.6	50.2397	13,454.6	48.8035	13,454.6	48.2724	13,454.6	44.55	13,454.6	37.9742
13,929.2	86.3676	13,929.2	84.5481	13,929.2	86.2868	13,929.2	81.2044	13,929.2	84.0456	13,929.2	76.5067	13,929.2	80.6381	13,929.2	70.9665	13,929.2	75.9983	13,929.2	63.5309	13,929.2	71.1395	13,929.2	64.268	13,929.2	69.665	13,929.2	63.4627	13,929.2	68.3314	13,929.2	59.8016	13,929.2	65.5009	13,929.2	56.9586	13,929.2	61.8485	13,929.2	52.6136	13,929.2	59.6782	13,929.2	52.8632	13,929.2	54.5787	13,929.2	46.8952	13,929.2	54.4663	13,929.2	49.5549	13,929.2	55.8672	13,929.2	48.1533	13,929.2	52.3023	13,929.2	46.5864	13,929.2	43.7709	13,929.2	49.6396	13,929.2	48.6988	13,929.2	50.2928	13,929.2	46.629	13,929.2	39.1561
14,419.9	86.2616	14,419.9	84.3471	14,419.9	86.1857	14,419.9	80.8507	14,419.9	83.8987	14,419.9	75.8947	14,419.9	80.4529	14,419.9	68.275	14,419.9	75.8354	14,419.9	64.823	14,419.9	71.1959	14,419.9	65.6387	14,419.9	69.5903	14,419.9	64.6337	14,419.9	68.6864	14,419.9	60.9458	14,419.9	65.9568	14,419.9	56.7852	14,419.9	61.6932	14,419.9	53.9261	14,419.9	59.0836	14,419.9	53.4442	14,419.9	54.5908	14,419.9	47.9394	14,419.9	54.5901	14,419.9	53.0903	14,419.9	53.9637	14,419.9	50.1498	14,419.9	51.5022	14,419.9	47.2664	14,419.9	44.5394	14,419.9	49.4361	14,419.9	48.069	14,419.9	51.1568	14,419.9	47.7902	14,419.9	41.9859
14,928.2	86.114	14,928.2	84.0471	14,928.2	85.9016	14,928.2	80.3647	14,928.2	83.4294	14,928.2	74.5292	14,928.2	79.6894	14,928.2	66.5807	14,928.2	74.5313	14,928.2	65.8981	14,928.2	70.3259	14,928.2	66.7674	14,928.2	68.8596	14,928.2	65.4352	14,928.2	68.1622	14,928.2	60.6867	14,928.2	65.8531	14,928.2	56.4352	14,928.2	60.8695	14,928.2	54.5308	14,928.2	56.8736	14,928.2	51.4776	14,928.2	54.6049	14,928.2	48.4719	14,928.2	53.3394	14,928.2	51.2343	14,928.2	51.5045	14,928.2	48.5542	14,928.2	50.4807	14,928.2	47.369	14,928.2	43.5265	14,928.2	47.7577	14,928.2	46.3408	14,928.2	48.5885	14,928.2	47.1561	14,928.2	40.8347
15,455.6	85.5884	15,455.6	83.2629	15,455.6	85.3017	15,455.6	79.0657	15,455.6	82.3682	15,455.6	72.6698	15,455.6	78.3804	15,455.6	66.9293	15,455.6	72.4114	15,455.6	67.0987	15,455.6	68.4035	15,455.6	67.6471	15,455.6	67.8098	15,455.6	64.8238	15,455.6	66.664	15,455.6	60.8356	15,455.6	62.7466	15,455.6	55.1791	15,455.6	59.1811	15,455.6	55.1555	15,455.6	55.1901	15,455.6	51.0443	15,455.6	52.9944	15,455.6	47.3102	15,455.6	52.9792	15,455.6	52.7857	15,455.6	52.0417	15,455.6	49.405	15,455.6	48.7205	15,455.6	44.7311	15,455.6	36.2051	15,455.6	47.5926	15,455.6	46.7006	15,455.6	45.4421	15,455.6	44.8624	15,455.6	39.5576
16,000.5	84.9958	16,000.5	82.5048	16,000.5	84.4598	16,000.5	78.2288	16,000.5	81.3634	16,000.5	72.8847	16,000.5	77.2916	16,000.5	70.1071	16,000.5	71.1471	16,000.5	69.6992	16,000.5	69.1992	16,000.5	69.0364	16,000.5	68.6833	16,000.5	65.633	16,000.5	66.6114	16,000.5	62.5549	16,000.5	63.316	16,000.5	57.7721	16,000.5	58.7911	16,000.5	55.7047	16,000.5	55.5673	16,000.5	49.3081	16,000.5	53.5788	16,000.5	49.6686	16,000.5	50.9367	16,000.5	52.4796	16,000.5	53.9011	16,000.5	51.2191	16,000.5	49.2083	16,000.5	47.788	16,000.5	41.2259	16,000.5	47.8277	16,000.5	45.7784	16,000.5	50.0329	16,000.5	46.0113	16,000.5	43.4169
16,564.5	84.3048	16,564.5	81.8892	16,564.5	83.6996	16,564.5	78.1054	16,564.5	80.3937	16,564.5	73.5687	16,564.5	76.4791	16,564.5	71.2143	16,564.5	71.3305	16,564.5	69.9213	16,564.5	70.188	16,564.5	68.4485	16,564.5	68.7398	16,564.5	65.497	16,564.5	66.5673	16,564.5	62.5531	16,564.5	63.8539	16,564.5	58.1981	16,564.5	59.5976	16,564.5	55.6239	16,564.5	57.0568	16,564.5	48.2695	16,564.5	53.1874	16,564.5	49.6171	16,564.5	53.0437	16,564.5	53.9068	16,564.5	52.7307	16,564.5	48.4428	16,564.5	49.0973	16,564.5	47.5877	16,564.5	39.2215	16,564.5	49.5097	16,564.5	47.6969	16,564.5	49.4172	16,564.5	45.7675	16,564.5	42.8428
17,148.9	83.2532	17,148.9	80.6646	17,148.9	82.3678	17,148.9	77.5274	17,148.9	79.1519	17,148.9	73.6294	17,148.9	75.7815	17,148.9	72.6323	17,148.9	72.4354	17,148.9	70.455	17,148.9	71.5977	17,148.9	68.7205	17,148.9	69.0333	17,148.9	65.5487	17,148.9	67.1534	17,148.9	63.3358	17,148.9	63.826	17,148.9	58.7155	17,148.9	59.4591	17,148.9	56.1048	17,148.9	56.8566	17,148.9	50.2394	17,148.9	53.6869	17,148.9	50.1942	17,148.9	51.3607	17,148.9	53.0159	17,148.9	52.016	17,148.9	48.9709	17,148.9	47.9403	17,148.9	46.3329	17,148.9	40.8853	17,148.9	48.964	17,148.9	47.156	17,148.9	49.2825	17,148.9	43.3982	17,148.9	45.8762
17,752.4	81.6543	17,752.4	79.7486	17,752.4	81.0213	17,752.4	78.8509	17,752.4	79.8101	17,752.4	75.971	17,752.4	77.7047	17,752.4	74.4222	17,752.4	74.6045	17,752.4	71.0308	17,752.4	72.8019	17,752.4	68.6046	17,752.4	68.645	17,752.4	64.7686	17,752.4	66.6275	17,752.4	62.1219	17,752.4	63.2205	17,752.4	58.9798	17,752.4	58.834	17,752.4	54.4953	17,752.4	55.2262	17,752.4	50.0176	17,752.4	53.7309	17,752.4	51.0484	17,752.4	49.0951	17,752.4	52.6821	17,752.4	53.3779	17,752.4	47.6003	17,752.4	48.6781	17,752.4	46.825	17,752.4	42.4043	17,752.4	45.264	17,752.4	49.3958	17,752.4	45.1153	17,752.4	43.373	17,752.4	45.1222
18,379.4	81.1825	18,379.4	79.7852	18,379.4	80.9169	18,379.4	78.4397	18,379.4	79.8243	18,379.4	73.7501	18,379.4	76.4699	18,379.4	71.3237	18,379.4	71.6275	18,379.4	66.5268	18,379.4	68.5896	18,379.4	63.4351	18,379.4	64.481	18,379.4	60.7207	18,379.4	63.4767	18,379.4	57.9976	18,379.4	62.1623	18,379.4	55.5636	18,379.4	57.7214	18,379.4	51.2301	18,379.4	52.2404	18,379.4	46.8091	18,379.4	50.1601	18,379.4	46.0196	18,379.4	48.2608	18,379.4	49.6656	18,379.4	52.6219	18,379.4	43.7545	18,379.4	42.7005	18,379.4	42.0587	18,379.4	38.7085	18,379.4	38.3946	18,379.4	46.063	18,379.4	40.5874	18,379.4	37.6722	18,379.4	39.1699
19,026.9	80.3773	19,026.9	79.0963	19,026.9	80.3059	19,026.9	76.4132	19,026.9	78.6939	19,026.9	70.1894	19,026.9	73.7687	19,026.9	69.0161	19,026.9	68.5587	19,026.9	65.4607	19,026.9	66.1858	19,026.9	64.8659	19,026.9	65.78	19,026.9	63.4665	19,026.9	64.932	19,026.9	59.5752	19,026.9	62.894	19,026.9	53.873	19,026.9	57.4145	19,026.9	52.9665	19,026.9	51.3181	19,026.9	48.4509	19,026.9	49.8335	19,026.9	46.6141	19,026.9	47.5605	19,026.9	48.9624	19,026.9	50.6146	19,026.9	46.5014	19,026.9	36.5504	19,026.9	37.3392	19,026.9	38.731	19,026.9	41.2007	19,026.9	45.057	19,026.9	44.2857	19,026.9	36.2164	19,026.9	41.0591
19,697.8	79.035	19,697.8	77.6195	19,697.8	78.9504	19,697.8	74.4993	19,697.8	76.9808	19,697.8	68.9494	19,697.8	71.121	19,697.8	67.7108	19,697.8	67.8491	19,697.8	65.3457	19,697.8	67.2977	19,697.8	64.2776	19,697.8	65.6616	19,697.8	61.9941	19,697.8	65.011	19,697.8	59.1097	19,697.8	62.4506	19,697.8	54.7203	19,697.8	58.2229	19,697.8	50.8933	19,697.8	50.9736	19,697.8	48.2535	19,697.8	51.2282	19,697.8	46.4007	19,697.8	47.3856	19,697.8	45.0394	19,697.8	42.4293	19,697.8	43.4978	19,697.8	38.4472	19,697.8	28.7562	19,697.8	30.7491	19,697.8	35.4318	19,697.8	42.2741	19,697.8	45.1767	19,697.8	37.0515	19,697.8	34.3683
19,999.5	78.1672	19,999.5	76.7187	19,999.5	78.3051	19,999.5	72.9557	19,999.5	76.2987	19,999.5	68.2566	19,999.5	70.7022	19,999.5	67.5577	19,999.5	68.0412	19,999.5	65.0572	19,999.5	67.9004	19,999.5	63.7262	19,999.5	66.0043	19,999.5	60.3173	19,999.5	64.6442	19,999.5	58.0653	19,999.5	60.8712	19,999.5	54.0642	19,999.5	57.3913	19,999.5	54.6924	19,999.5	51.258	19,999.5	47.5189	19,999.5	52.1834	19,999.5	44.278	19,999.5	35.6843	19,999.5	44.6474	19,999.5	36.0067	19,999.5	43.6373	19,999.5	44.939	19,999.5	36.2753	19,999.5	51.0716	19,999.5	41.5132	19,999.5	40.9823	19,999.5	34.3178	19,999.5	40.872	19,999.5	43.1713
