"SPL Vertical"
"On-Axis"		"10°"		"-10°"		"20°"		"-20°"		"30°"		"-30°"		"40°"		"-40°"		"50°"		"-50°"		"60°"		"-60°"		"70°"		"-70°"		"80°"		"-80°"		"90°"		"-90°"		"100°"		"-100°"		"110°"		"-110°"		"120°"		"-120°"		"130°"		"-130°"		"140°"		"-140°"		"150°"		"-150°"		"160°"		"-160°"		"170°"		"-170°"		"180°"
"Frequency / Hz"	"Sound Pressure Level / dB (re 20 µPa/V)  [2.83  V @ 1. m]"	"Frequency / Hz"	"Sound Pressure Level / dB (re 20 µPa/V)  [2.83  V @ 1. m]"	"Frequency / Hz"	"Sound Pressure Level / dB (re 20 µPa/V)  [2.83  V @ 1. m]"	"Frequency / Hz"	"Sound Pressure Level / dB (re 20 µPa/V)  [2.83  V @ 1. m]"	"Frequency / Hz"	"Sound Pressure Level / dB (re 20 µPa/V)  [2.83  V @ 1. m]"	"Frequency / Hz"	"Sound Pressure Level / dB (re 20 µPa/V)  [2.83  V @ 1. m]"	"Frequency / Hz"	"Sound Pressure Level / dB (re 20 µPa/V)  [2.83  V @ 1. m]"	"Frequency / Hz"	"Sound Pressure Level / dB (re 20 µPa/V)  [2.83  V @ 1. m]"	"Frequency / Hz"	"Sound Pressure Level / dB (re 20 µPa/V)  [2.83  V @ 1. m]"	"Frequency / Hz"	"Sound Pressure Level / dB (re 20 µPa/V)  [2.83  V @ 1. m]"	"Frequency / Hz"	"Sound Pressure Level / dB (re 20 µPa/V)  [2.83  V @ 1. m]"	"Frequency / Hz"	"Sound Pressure Level / dB (re 20 µPa/V)  [2.83  V @ 1. m]"	"Frequency / Hz"	"Sound Pressure Level / dB (re 20 µPa/V)  [2.83  V @ 1. m]"	"Frequency / Hz"	"Sound Pressure Level / dB (re 20 µPa/V)  [2.83  V @ 1. m]"	"Frequency / Hz"	"Sound Pressure Level / dB (re 20 µPa/V)  [2.83  V @ 1. m]"	"Frequency / Hz"	"Sound Pressure Level / dB (re 20 µPa/V)  [2.83  V @ 1. m]"	"Frequency / Hz"	"Sound Pressure Level / dB (re 20 µPa/V)  [2.83  V @ 1. m]"	"Frequency / Hz"	"Sound Pressure Level / dB (re 20 µPa/V)  [2.83  V @ 1. m]"	"Frequency / Hz"	"Sound Pressure Level / dB (re 20 µPa/V)  [2.83  V @ 1. m]"	"Frequency / Hz"	"Sound Pressure Level / dB (re 20 µPa/V)  [2.83  V @ 1. m]"	"Frequency / Hz"	"Sound Pressure Level / dB (re 20 µPa/V)  [2.83  V @ 1. m]"	"Frequency / Hz"	"Sound Pressure Level / dB (re 20 µPa/V)  [2.83  V @ 1. m]"	"Frequency / Hz"	"Sound Pressure Level / dB (re 20 µPa/V)  [2.83  V @ 1. m]"	"Frequency / Hz"	"Sound Pressure Level / dB (re 20 µPa/V)  [2.83  V @ 1. m]"	"Frequency / Hz"	"Sound Pressure Level / dB (re 20 µPa/V)  [2.83  V @ 1. m]"	"Frequency / Hz"	"Sound Pressure Level / dB (re 20 µPa/V)  [2.83  V @ 1. m]"	"Frequency / Hz"	"Sound Pressure Level / dB (re 20 µPa/V)  [2.83  V @ 1. m]"	"Frequency / Hz"	"Sound Pressure Level / dB (re 20 µPa/V)  [2.83  V @ 1. m]"	"Frequency / Hz"	"Sound Pressure Level / dB (re 20 µPa/V)  [2.83  V @ 1. m]"	"Frequency / Hz"	"Sound Pressure Level / dB (re 20 µPa/V)  [2.83  V @ 1. m]"	"Frequency / Hz"	"Sound Pressure Level / dB (re 20 µPa/V)  [2.83  V @ 1. m]"	"Frequency / Hz"	"Sound Pressure Level / dB (re 20 µPa/V)  [2.83  V @ 1. m]"	"Frequency / Hz"	"Sound Pressure Level / dB (re 20 µPa/V)  [2.83  V @ 1. m]"	"Frequency / Hz"	"Sound Pressure Level / dB (re 20 µPa/V)  [2.83  V @ 1. m]"	"Frequency / Hz"	"Sound Pressure Level / dB (re 20 µPa/V)  [2.83  V @ 1. m]"	"Frequency / Hz"	"Sound Pressure Level / dB (re 20 µPa/V)  [2.83  V @ 1. m]"
20.5078	56.8759	20.5078	56.5139	20.5078	57.1958	20.5078	56.126	20.5078	57.4622	20.5078	55.7355	20.5078	57.6672	20.5078	55.373	20.5078	57.8061	20.5078	55.0762	20.5078	57.877	20.5078	54.8846	20.5078	57.8819	20.5078	54.8302	20.5078	57.8286	20.5078	54.9274	20.5078	57.7327	20.5078	55.1668	20.5078	57.6189	20.5078	55.5184	20.5078	57.5198	20.5078	55.9411	20.5078	57.4694	20.5078	56.3935	20.5078	57.4923	20.5078	56.8393	20.5078	57.5926	20.5078	57.2502	20.5078	57.7498	20.5078	57.6038	20.5078	57.9254	20.5078	57.8828	20.5078	58.0762	20.5078	58.0737	20.5078	58.1652	20.5078	58.168
21.9727	51.4233	21.9727	52.4358	21.9727	50.6323	21.9727	53.6035	21.9727	50.122	21.9727	54.8588	21.9727	49.9551	21.9727	56.1443	21.9727	50.2101	21.9727	57.4176	21.9727	50.9545	21.9727	58.6511	21.9727	52.1746	21.9727	59.8279	21.9727	53.746	21.9727	60.9376	21.9727	55.4944	21.9727	61.9732	21.9727	57.27	21.9727	62.9286	21.9727	58.9741	21.9727	63.7972	21.9727	60.5498	21.9727	64.5709	21.9727	61.9663	21.9727	65.2392	21.9727	63.2062	21.9727	65.7894	21.9727	64.2589	21.9727	66.2067	21.9727	65.1175	21.9727	66.475	21.9727	65.7779	21.9727	66.5786	21.9727	66.239	21.9727	66.5036
23.4375	60.4278	23.4375	60.35	23.4375	60.5183	23.4375	60.3181	23.4375	60.5964	23.4375	60.3703	23.4375	60.6479	23.4375	60.5427	23.4375	60.6704	23.4375	60.8605	23.4375	60.6774	23.4375	61.3301	23.4375	60.7013	23.4375	61.936	23.4375	60.7952	23.4375	62.6459	23.4375	61.0254	23.4375	63.4192	23.4375	61.4498	23.4375	64.2148	23.4375	62.0878	23.4375	64.995	23.4375	62.9042	23.4375	65.727	23.4375	63.8236	23.4375	66.3819	23.4375	64.7591	23.4375	66.934	23.4375	65.6351	23.4375	67.3598	23.4375	66.3958	23.4375	67.6383	23.4375	67.0041	23.4375	67.7519	23.4375	67.438	23.4375	67.6875
24.9023	63.2993	24.9023	63.0787	24.9023	63.4943	24.9023	62.851	24.9023	63.6502	24.9023	62.6408	24.9023	63.7589	24.9023	62.4788	24.9023	63.8166	24.9023	62.3995	24.9023	63.8258	24.9023	62.4361	24.9023	63.7968	24.9023	62.6128	24.9023	63.7501	24.9023	62.9364	24.9023	63.7189	24.9023	63.3929	24.9023	63.7476	24.9023	63.95	24.9023	63.8829	24.9023	64.5648	24.9023	64.1575	24.9023	65.1917	24.9023	64.5728	24.9023	65.7872	24.9023	65.0927	24.9023	66.3129	24.9023	65.6558	24.9023	66.7361	24.9023	66.1944	24.9023	67.0298	24.9023	66.6499	24.9023	67.1745	24.9023	66.9798	24.9023	67.1583
26.3672	62.2366	26.3672	61.8774	26.3672	62.532	26.3672	61.4699	26.3672	62.7528	26.3672	61.0364	26.3672	62.891	26.3672	60.6096	26.3672	62.9413	26.3672	60.2351	26.3672	62.901	26.3672	59.9695	26.3672	62.7725	26.3672	59.8703	26.3672	62.5656	26.3672	59.9759	26.3672	62.3026	26.3672	60.2872	26.3672	62.0231	26.3672	60.7641	26.3672	61.7857	26.3672	61.3406	26.3672	61.6598	26.3672	61.9459	26.3672	61.7018	26.3672	62.5185	26.3672	61.9248	26.3672	63.011	26.3672	62.288	26.3672	63.3895	26.3672	62.715	26.3672	63.6312	26.3672	63.1253	26.3672	63.7231	26.3672	63.4548	26.3672	63.6617
27.832	59.9059	27.832	59.574	27.832	60.1769	27.832	59.2206	27.832	60.3602	27.832	58.9023	27.832	60.4379	27.832	58.6916	27.832	60.3986	27.832	58.6653	27.832	60.238	27.832	58.8767	27.832	59.963	27.832	59.3298	27.832	59.6006	27.832	59.9752	27.832	59.2123	27.832	60.7339	27.832	58.9076	27.832	61.5264	27.832	58.8322	27.832	62.2879	27.832	59.1029	27.832	62.9712	27.832	59.7214	27.832	63.5429	27.832	60.5686	27.832	63.9796	27.832	61.4884	27.832	64.2642	27.832	62.3581	27.832	64.3846	27.832	63.1045	27.832	64.3321	27.832	63.6907	27.832	64.1013
29.2969	64.4686	29.2969	64.4255	29.2969	64.525	29.2969	64.4176	29.2969	64.5778	29.2969	64.4697	29.2969	64.6171	29.2969	64.6052	29.2969	64.6407	29.2969	64.8414	29.2969	64.6565	29.2969	65.1848	29.2969	64.6835	29.2969	65.6289	29.2969	64.7527	29.2969	66.1554	29.2969	64.904	29.2969	66.7381	29.2969	65.1762	29.2969	67.3468	29.2969	65.5927	29.2969	67.9514	29.2969	66.1476	29.2969	68.5232	29.2969	66.8044	29.2969	69.0358	29.2969	67.5074	29.2969	69.465	29.2969	68.1968	29.2969	69.7891	29.2969	68.8204	29.2969	69.9894	29.2969	69.3385	29.2969	70.0508	29.2969	69.7246	29.2969	69.9637
30.7617	67.7742	30.7617	67.7038	30.7617	67.8547	30.7617	67.6569	30.7617	67.9349	30.7617	67.6493	30.7617	68.0087	30.7617	67.6972	30.7617	68.0743	30.7617	67.8153	30.7617	68.1355	30.7617	68.0141	30.7617	68.2023	30.7617	68.2971	30.7617	68.291	30.7617	68.6597	30.7617	68.4235	30.7617	69.0893	30.7617	68.6232	30.7617	69.5665	30.7617	68.9084	30.7617	70.067	30.7617	69.2844	30.7617	70.5644	30.7617	69.7384	30.7617	71.0312	30.7617	70.2401	30.7617	71.4406	30.7617	70.748	30.7617	71.7677	30.7617	71.2185	30.7617	71.9906	30.7617	71.6126	30.7617	72.0925	30.7617	71.9004	30.7617	72.063
32.2266	69.0889	32.2266	69	32.2266	69.1844	32.2266	68.9289	32.2266	69.2781	32.2266	68.8888	32.2266	69.3645	32.2266	68.8939	32.2266	69.4419	32.2266	68.9578	32.2266	69.5125	32.2266	69.0918	32.2266	69.5838	32.2266	69.3022	32.2266	69.6679	32.2266	69.5891	32.2266	69.7818	32.2266	69.945	32.2266	69.9442	32.2266	70.3549	32.2266	70.171	32.2266	70.7983	32.2266	70.4695	32.2266	71.2504	32.2266	70.8331	32.2266	71.6844	32.2266	71.2403	32.2266	72.0735	32.2266	71.6579	32.2266	72.3922	32.2266	72.0482	32.2266	72.6184	32.2266	72.3751	32.2266	72.7352	32.2266	72.6097	32.2266	72.7327
33.6914	69.8171	33.6914	69.7212	33.6914	69.9181	33.6914	69.6403	33.6914	70.0167	33.6914	69.5862	33.6914	70.1076	33.6914	69.5716	33.6914	70.1889	33.6914	69.6092	33.6914	70.2621	33.6914	69.7097	33.6914	70.3327	33.6914	69.8805	33.6914	70.4106	33.6914	70.1231	33.6914	70.5097	33.6914	70.4324	33.6914	70.6456	33.6914	70.7962	33.6914	70.8327	33.6914	71.1961	33.6914	71.079	33.6914	71.6093	33.6914	71.3814	33.6914	72.0101	33.6914	71.724	33.6914	72.3725	33.6914	72.0799	33.6914	72.6718	33.6914	72.4161	33.6914	72.8868	33.6914	72.6998	33.6914	73.0014	33.6914	72.9031	33.6914	73.0069
35.1562	70.252	35.1562	70.1605	35.1562	70.3489	35.1562	70.0835	35.1562	70.4442	35.1562	70.0313	35.1562	70.533	35.1562	70.0155	35.1562	70.6131	35.1562	70.0472	35.1562	70.6854	35.1562	70.1362	35.1562	70.7546	35.1562	70.2889	35.1562	70.8287	35.1562	70.5068	35.1562	70.9192	35.1562	70.7855	35.1562	71.0394	35.1562	71.1141	35.1562	71.2017	35.1562	71.4758	35.1562	71.4133	35.1562	71.8496	35.1562	71.6729	35.1562	72.2119	35.1562	71.9682	35.1562	72.5386	35.1562	72.2771	35.1562	72.8071	35.1562	72.5716	35.1562	72.9984	35.1562	72.8226	35.1562	73.0984	35.1562	73.005	35.1562	73.1003
36.6211	70.8186	36.6211	70.7415	36.6211	70.9016	36.6211	70.6785	36.6211	70.9841	36.6211	70.639	36.6211	71.0618	36.6211	70.6333	36.6211	71.1328	36.6211	70.6715	36.6211	71.1983	36.6211	70.7618	36.6211	71.2621	36.6211	70.9096	36.6211	71.3315	36.6211	71.1156	36.6211	71.4163	36.6211	71.3749	36.6211	71.5279	36.6211	71.6771	36.6211	71.6768	36.6211	72.0067	36.6211	71.8691	36.6211	72.3443	36.6211	72.1039	36.6211	72.6686	36.6211	72.3709	36.6211	72.9579	36.6211	72.6513	36.6211	73.1922	36.6211	72.9208	36.6211	73.3547	36.6211	73.1537	36.6211	73.4337	36.6211	73.3271	36.6211	73.4238
38.0859	71.609	38.0859	71.5527	38.0859	71.677	38.0859	71.5146	38.0859	71.7514	38.0859	71.5022	38.0859	71.8283	38.0859	71.523	38.0859	71.906	38.0859	71.5842	38.0859	71.9845	38.0859	71.6912	38.0859	72.0664	38.0859	71.8471	38.0859	72.1566	38.0859	72.0512	38.0859	72.2618	38.0859	72.2986	38.0859	72.39	38.0859	72.5802	38.0859	72.5481	38.0859	72.8828	38.0859	72.7401	38.0859	73.1901	38.0859	72.9643	38.0859	73.4837	38.0859	73.212	38.0859	73.745	38.0859	73.4678	38.0859	73.9562	38.0859	73.7114	38.0859	74.1024	38.0859	73.9211	38.0859	74.1733	38.0859	74.0771	38.0859	74.1642
39.5508	73.0772	39.5508	73.0391	39.5508	73.129	39.5508	73.0194	39.5508	73.1908	39.5508	73.0227	39.5508	73.2592	39.5508	73.0537	39.5508	73.3321	39.5508	73.1163	39.5508	73.4088	39.5508	73.2135	39.5508	73.4899	39.5508	73.3468	39.5508	73.5777	39.5508	73.5152	39.5508	73.6759	39.5508	73.7152	39.5508	73.7893	39.5508	73.9404	39.5508	73.9225	39.5508	74.181	39.5508	74.078	39.5508	74.4248	39.5508	74.2553	39.5508	74.6577	39.5508	74.4486	39.5508	74.8647	39.5508	74.6474	39.5508	75.0317	39.5508	74.837	39.5508	75.1468	39.5508	75.001	39.5508	75.2018	39.5508	75.124	39.5508	75.1935
41.0156	74.5804	41.0156	74.534	41.0156	74.6349	41.0156	74.4996	41.0156	74.6946	41.0156	74.4811	41.0156	74.7571	41.0156	74.4829	41.0156	74.8209	41.0156	74.5095	41.0156	74.8858	41.0156	74.5645	41.0156	74.9525	41.0156	74.6509	41.0156	75.023	41.0156	74.77	41.0156	75.1006	41.0156	74.9205	41.0156	75.1894	41.0156	75.0987	41.0156	75.2933	41.0156	75.2975	41.0156	75.415	41.0156	75.507	41.0156	75.5545	41.0156	75.7148	41.0156	75.7076	41.0156	75.907	41.0156	75.8654	41.0156	76.0699	41.0156	76.0154	41.0156	76.1908	41.0156	76.1426	41.0156	76.2605	41.0156	76.2327	41.0156	76.2742
42.4805	75.7913	42.4805	75.7398	42.4805	75.8544	42.4805	75.7036	42.4805	75.9261	42.4805	75.6865	42.4805	76.0039	42.4805	75.6928	42.4805	76.0862	42.4805	75.7265	42.4805	76.1722	42.4805	75.7912	42.4805	76.2622	42.4805	75.8895	42.4805	76.3575	42.4805	76.0225	42.4805	76.4608	42.4805	76.1891	42.4805	76.5752	42.4805	76.3857	42.4805	76.7041	42.4805	76.6058	42.4805	76.8496	42.4805	76.8399	42.4805	77.0111	42.4805	77.0756	42.4805	77.1838	42.4805	77.2985	42.4805	77.3581	42.4805	77.493	42.4805	77.5201	42.4805	77.6441	42.4805	77.6531	42.4805	77.7396	42.4805	77.7413	42.4805	77.7723
43.9453	76.6204	43.9453	76.5765	43.9453	76.6811	43.9453	76.5521	43.9453	76.7561	43.9453	76.55	43.9453	76.8433	43.9453	76.5731	43.9453	76.9409	43.9453	76.624	43.9453	77.0478	43.9453	76.7052	43.9453	77.1635	43.9453	76.8186	43.9453	77.2884	43.9453	76.965	43.9453	77.4236	43.9453	77.1436	43.9453	77.5707	43.9453	77.3517	43.9453	77.7313	43.9453	77.584	43.9453	77.9057	43.9453	77.8318	43.9453	78.0917	43.9453	78.0838	43.9453	78.2836	43.9453	78.3253	43.9453	78.4709	43.9453	78.5401	43.9453	78.6395	43.9453	78.7117	43.9453	78.7729	43.9453	78.8263	43.9453	78.8553	43.9453	78.8748
45.4102	77.1816	45.4102	77.1402	45.4102	77.2417	45.4102	77.1195	45.4102	77.3184	45.4102	77.1216	45.4102	77.4099	45.4102	77.149	45.4102	77.5146	45.4102	77.2039	45.4102	77.6314	45.4102	77.2886	45.4102	77.7594	45.4102	77.4047	45.4102	77.8985	45.4102	77.5533	45.4102	78.0488	45.4102	77.7344	45.4102	78.2111	45.4102	77.9456	45.4102	78.3857	45.4102	78.1824	45.4102	78.5721	45.4102	78.4368	45.4102	78.7674	45.4102	78.6975	45.4102	78.9656	45.4102	78.9496	45.4102	79.1562	45.4102	79.1762	45.4102	79.3249	45.4102	79.3599	45.4102	79.4556	45.4102	79.4859	45.4102	79.5326	45.4102	79.5443
46.875	77.2015	46.875	77.1623	46.875	77.2619	46.875	77.1459	46.875	77.3419	46.875	77.154	46.875	77.4399	46.875	77.1885	46.875	77.5543	46.875	77.251	46.875	77.6839	46.875	77.3432	46.875	77.8272	46.875	77.4666	46.875	77.9835	46.875	77.6221	46.875	78.1518	46.875	77.8092	46.875	78.3317	46.875	78.0262	46.875	78.5224	46.875	78.2685	46.875	78.722	46.875	78.5287	46.875	78.9269	46.875	78.7957	46.875	79.1303	46.875	79.055	46.875	79.3219	46.875	79.2894	46.875	79.4879	46.875	79.4818	46.875	79.6128	46.875	79.617	46.875	79.682	46.875	79.6849
48.3398	76.9587	48.3398	76.9173	48.3398	77.02	48.3398	76.897	48.3398	77.0999	48.3398	76.8991	48.3398	77.1971	48.3398	76.925	48.3398	77.3103	48.3398	76.9764	48.3398	77.4379	48.3398	77.0548	48.3398	77.5784	48.3398	77.1618	48.3398	77.7303	48.3398	77.2986	48.3398	77.8923	48.3398	77.4654	48.3398	78.0631	48.3398	77.661	48.3398	78.2414	48.3398	77.8819	48.3398	78.425	48.3398	78.1216	48.3398	78.6102	48.3398	78.3701	48.3398	78.7907	48.3398	78.614	48.3398	78.9574	48.3398	78.8377	48.3398	79.098	48.3398	79.0248	48.3398	79.1992	48.3398	79.1611	48.3398	79.2485	48.3398	79.2369
51.2695	77.1077	51.2695	77.0453	51.2695	77.1759	51.2695	76.9901	51.2695	77.2483	51.2695	76.9434	51.2695	77.3233	51.2695	76.9065	51.2695	77.3987	51.2695	76.881	51.2695	77.4724	51.2695	76.8682	51.2695	77.5419	51.2695	76.8695	51.2695	77.6049	51.2695	76.8863	51.2695	77.6596	51.2695	76.9191	51.2695	77.7042	51.2695	76.9682	51.2695	77.7379	51.2695	77.0323	51.2695	77.7601	51.2695	77.1092	51.2695	77.771	51.2695	77.1952	51.2695	77.7707	51.2695	77.2858	51.2695	77.7596	51.2695	77.3761	51.2695	77.7378	51.2695	77.4615	51.2695	77.7051	51.2695	77.5388	51.2695	77.6611	51.2695	77.6056
52.7344	77.9565	52.7344	77.8934	52.7344	78.0224	52.7344	77.8346	52.7344	78.0896	52.7344	77.781	52.7344	78.1559	52.7344	77.7333	52.7344	78.2188	52.7344	77.692	52.7344	78.2754	52.7344	77.6577	52.7344	78.3227	52.7344	77.6304	52.7344	78.3577	52.7344	77.6105	52.7344	78.3773	52.7344	77.5977	52.7344	78.3791	52.7344	77.5918	52.7344	78.3612	52.7344	77.5921	52.7344	78.323	52.7344	77.5977	52.7344	78.2654	52.7344	77.608	52.7344	78.1909	52.7344	77.6229	52.7344	78.1042	52.7344	77.6436	52.7344	78.0117	52.7344	77.6725	52.7344	77.9205	52.7344	77.713	52.7344	77.8376	52.7344	77.7677
54.1992	78.9749	54.1992	78.9206	54.1992	79.0351	54.1992	78.873	54.1992	79.0999	54.1992	78.8324	54.1992	79.1674	54.1992	78.7988	54.1992	79.235	54.1992	78.7718	54.1992	79.2996	54.1992	78.7511	54.1992	79.3578	54.1992	78.7361	54.1992	79.4058	54.1992	78.7263	54.1992	79.4397	54.1992	78.7215	54.1992	79.4559	54.1992	78.7212	54.1992	79.4518	54.1992	78.7252	54.1992	79.426	54.1992	78.7333	54.1992	79.3789	54.1992	78.7456	54.1992	79.3132	54.1992	78.7627	54.1992	79.234	54.1992	78.7861	54.1992	79.1479	54.1992	78.8179	54.1992	79.062	54.1992	78.8602	54.1992	78.983	54.1992	78.9151
55.6641	79.8311	55.6641	79.7884	55.6641	79.8853	55.6641	79.7573	55.6641	79.9501	55.6641	79.7377	55.6641	80.0238	55.6641	79.7289	55.6641	80.1041	55.6641	79.7298	55.6641	80.1879	55.6641	79.7396	55.6641	80.2716	55.6641	79.7573	55.6641	80.3509	55.6641	79.7823	55.6641	80.4215	55.6641	79.8141	55.6641	80.4791	55.6641	79.8523	55.6641	80.5204	55.6641	79.8967	55.6641	80.5434	55.6641	79.9471	55.6641	80.5475	55.6641	80.0028	55.6641	80.5343	55.6641	80.0629	55.6641	80.5065	55.6641	80.1258	55.6641	80.4678	55.6641	80.1896	55.6641	80.4213	55.6641	80.2524	55.6641	80.3691	55.6641	80.3126
58.5938	80.4955	58.5938	80.4636	58.5938	80.5472	58.5938	80.4506	58.5938	80.6189	58.5938	80.4549	58.5938	80.7097	58.5938	80.4747	58.5938	80.8173	58.5938	80.5079	58.5938	80.9384	58.5938	80.5529	58.5938	81.0688	58.5938	80.6083	58.5938	81.2031	58.5938	80.6736	58.5938	81.3357	58.5938	80.7486	58.5938	81.461	58.5938	80.8339	58.5938	81.574	58.5938	80.9298	58.5938	81.6706	58.5938	81.0366	58.5938	81.7477	58.5938	81.1533	58.5938	81.8035	58.5938	81.277	58.5938	81.8368	58.5938	81.4029	58.5938	81.8464	58.5938	81.5242	58.5938	81.8313	58.5938	81.6334	58.5938	81.7904	58.5938	81.7237
60.0586	80.5366	60.0586	80.5012	60.0586	80.5899	60.0586	80.4827	60.0586	80.6612	60.0586	80.4797	60.0586	80.7497	60.0586	80.4906	60.0586	80.8536	60.0586	80.5139	60.0586	80.9699	60.0586	80.5484	60.0586	81.0946	60.0586	80.5933	60.0586	81.2228	60.0586	80.6486	60.0586	81.3494	60.0586	80.7149	60.0586	81.4692	60.0586	80.7931	60.0586	81.5773	60.0586	80.8841	60.0586	81.6697	60.0586	80.9884	60.0586	81.7434	60.0586	81.1051	60.0586	81.7962	60.0586	81.231	60.0586	81.8267	60.0586	81.3609	60.0586	81.8333	60.0586	81.4874	60.0586	81.8146	60.0586	81.6022	60.0586	81.7695	60.0586	81.6979
62.9883	80.4875	62.9883	80.4452	62.9883	80.5444	62.9883	80.4172	62.9883	80.6159	62.9883	80.4031	62.9883	80.701	62.9883	80.4019	62.9883	80.7985	62.9883	80.4131	62.9883	80.9059	62.9883	80.4362	62.9883	81.0204	62.9883	80.4708	62.9883	81.138	62.9883	80.5173	62.9883	81.2545	62.9883	80.5761	62.9883	81.3651	62.9883	80.648	62.9883	81.4653	62.9883	80.7338	62.9883	81.551	62.9883	80.8335	62.9883	81.6189	62.9883	80.9462	62.9883	81.6662	62.9883	81.069	62.9883	81.6909	62.9883	81.1968	62.9883	81.6914	62.9883	81.3228	62.9883	81.6664	62.9883	81.4391	62.9883	81.6151	62.9883	81.5384
64.4531	80.5894	64.4531	80.5499	64.4531	80.6451	64.4531	80.5257	64.4531	80.717	64.4531	80.5157	64.4531	80.8046	64.4531	80.5189	64.4531	80.9064	64.4531	80.534	64.4531	81.0199	64.4531	80.5601	64.4531	81.1417	64.4531	80.5966	64.4531	81.2673	64.4531	80.6434	64.4531	81.3915	64.4531	80.7007	64.4531	81.5088	64.4531	80.7694	64.4531	81.6138	64.4531	80.8503	64.4531	81.7018	64.4531	80.9441	64.4531	81.7688	64.4531	81.0502	64.4531	81.812	64.4531	81.1669	64.4531	81.8294	64.4531	81.2903	64.4531	81.8203	64.4531	81.4146	64.4531	81.7844	64.4531	81.5326	64.4531	81.7226	64.4531	81.6373
67.3828	80.9363	67.3828	80.8955	67.3828	80.9938	67.3828	80.8707	67.3828	81.068	67.3828	80.8605	67.3828	81.1581	67.3828	80.8633	67.3828	81.2621	67.3828	80.8772	67.3828	81.3769	67.3828	80.9008	67.3828	81.4985	67.3828	80.9328	67.3828	81.622	67.3828	80.9726	67.3828	81.7419	67.3828	81.0203	67.3828	81.8525	67.3828	81.0766	67.3828	81.9484	67.3828	81.1428	67.3828	82.0245	67.3828	81.2202	67.3828	82.0772	67.3828	81.3095	67.3828	82.104	67.3828	81.4103	67.3828	82.1037	67.3828	81.5203	67.3828	82.0768	67.3828	81.6353	67.3828	82.0246	67.3828	81.7495	67.3828	81.9498	67.3828	81.8564
68.8477	80.9903	68.8477	80.9482	68.8477	81.0491	68.8477	80.9219	68.8477	81.1243	68.8477	80.9104	68.8477	81.2149	68.8477	80.912	68.8477	81.3188	68.8477	80.925	68.8477	81.433	68.8477	80.9479	68.8477	81.5535	68.8477	80.9795	68.8477	81.6755	68.8477	81.0193	68.8477	81.7936	68.8477	81.0674	68.8477	81.9026	68.8477	81.1244	68.8477	81.9969	68.8477	81.1916	68.8477	82.072	68.8477	81.2701	68.8477	82.1243	68.8477	81.3608	68.8477	82.1512	68.8477	81.4628	68.8477	82.1517	68.8477	81.5738	68.8477	82.126	68.8477	81.6894	68.8477	82.0753	68.8477	81.8035	68.8477	82.002	68.8477	81.9098
71.7773	81.0415	71.7773	80.9902	71.7773	81.1071	71.7773	80.9532	71.7773	81.1862	71.7773	80.9298	71.7773	81.2773	71.7773	80.9192	71.7773	81.3779	71.7773	80.92	71.7773	81.4849	71.7773	80.931	71.7773	81.5947	71.7773	80.9513	71.7773	81.7031	71.7773	80.9806	71.7773	81.8055	71.7773	81.019	71.7773	81.8975	71.7773	81.0674	71.7773	81.9748	71.7773	81.1271	71.7773	82.0339	71.7773	81.1992	71.7773	82.0717	71.7773	81.2845	71.7773	82.0867	71.7773	81.3822	71.7773	82.0779	71.7773	81.4898	71.7773	82.0455	71.7773	81.603	71.7773	81.9904	71.7773	81.7157	71.7773	81.9147	71.7773	81.8216
74.707	81.492	74.707	81.4286	74.707	81.5623	74.707	81.3723	74.707	81.6383	74.707	81.3226	74.707	81.7186	74.707	81.279	74.707	81.8005	74.707	81.2403	74.707	81.8809	74.707	81.206	74.707	81.9563	74.707	81.1757	74.707	82.0227	74.707	81.1498	74.707	82.0762	74.707	81.1295	74.707	82.1129	74.707	81.1169	74.707	82.1297	74.707	81.1152	74.707	82.1245	74.707	81.1275	74.707	82.0965	74.707	81.157	74.707	82.0463	74.707	81.2057	74.707	81.976	74.707	81.2741	74.707	81.8887	74.707	81.3602	74.707	81.7885	74.707	81.4602	74.707	81.6801	74.707	81.5687
77.6367	82.0898	77.6367	82.0191	77.6367	82.1643	77.6367	81.952	77.6367	82.242	77.6367	81.8877	77.6367	82.321	77.6367	81.8245	77.6367	82.3986	77.6367	81.7608	77.6367	82.4709	77.6367	81.6953	77.6367	82.5334	77.6367	81.6268	77.6367	82.5808	77.6367	81.5555	77.6367	82.6074	77.6367	81.4824	77.6367	82.6081	77.6367	81.4103	77.6367	82.5786	77.6367	81.3432	77.6367	82.5161	77.6367	81.2868	77.6367	82.4203	77.6367	81.2475	77.6367	82.2941	77.6367	81.2323	77.6367	82.1434	77.6367	81.247	77.6367	81.977	77.6367	81.2958	77.6367	81.8062	77.6367	81.3801	77.6367	81.6427	77.6367	81.4977
79.1016	82.2778	79.1016	82.207	79.1016	82.353	79.1016	82.1399	79.1016	82.432	79.1016	82.0753	79.1016	82.5129	79.1016	82.0113	79.1016	82.5928	79.1016	81.9455	79.1016	82.6675	79.1016	81.876	79.1016	82.7318	79.1016	81.8012	79.1016	82.7796	79.1016	81.7205	79.1016	82.8045	79.1016	81.6346	79.1016	82.8004	79.1016	81.546	79.1016	82.762	79.1016	81.459	79.1016	82.6859	79.1016	81.3797	79.1016	82.5715	79.1016	81.316	79.1016	82.4218	79.1016	81.2768	79.1016	82.2438	79.1016	81.2707	79.1016	82.0486	79.1016	81.3048	79.1016	81.8504	79.1016	81.3832	79.1016	81.6644	79.1016	81.5051
82.0312	82.6084	82.0312	82.542	82.0312	82.6821	82.0312	82.4821	82.0312	82.7628	82.0312	82.4266	82.0312	82.8487	82.0312	82.3726	82.0312	82.9366	82.0312	82.3171	82.0312	83.0217	82.0312	82.2568	82.0312	83.0979	82.0312	82.189	82.0312	83.1581	82.0312	82.1121	82.0312	83.1948	82.0312	82.0257	82.0312	83.2001	82.0312	81.9313	82.0312	83.1672	82.0312	81.8329	82.0312	83.0912	82.0312	81.7368	82.0312	82.9701	82.0312	81.6521	82.0312	82.8064	82.0312	81.5899	82.0312	82.6076	82.0312	81.5622	82.0312	82.3868	82.0312	81.5804	82.0312	82.1619	82.0312	81.6519	82.0312	81.9528	82.0312	81.7782
84.9609	82.7767	84.9609	82.7168	84.9609	82.8509	84.9609	82.6705	84.9609	82.9388	84.9609	82.6355	84.9609	83.0379	84.9609	82.6086	84.9609	83.1444	84.9609	82.5858	84.9609	83.2529	84.9609	82.563	84.9609	83.3568	84.9609	82.5365	84.9609	83.4485	84.9609	82.5033	84.9609	83.5201	84.9609	82.4618	84.9609	83.5634	84.9609	82.4124	84.9609	83.5708	84.9609	82.3577	84.9609	83.5366	84.9609	82.3024	84.9609	83.4579	84.9609	82.2542	84.9609	83.3357	84.9609	82.2226	84.9609	83.1764	84.9609	82.2183	84.9609	82.9914	84.9609	82.2513	84.9609	82.7966	84.9609	82.3281	84.9609	82.6103	84.9609	82.4499
87.8906	83.3513	87.8906	83.2927	87.8906	83.4116	87.8906	83.2346	87.8906	83.474	87.8906	83.1745	87.8906	83.5376	87.8906	83.1094	87.8906	83.6002	87.8906	83.036	87.8906	83.6585	87.8906	82.9513	87.8906	83.7079	87.8906	82.8528	87.8906	83.7427	87.8906	82.7397	87.8906	83.7562	87.8906	82.6128	87.8906	83.7412	87.8906	82.4753	87.8906	83.6906	87.8906	82.333	87.8906	83.5986	87.8906	82.195	87.8906	83.4621	87.8906	82.073	87.8906	83.2823	87.8906	81.981	87.8906	83.0658	87.8906	81.9336	87.8906	82.8252	87.8906	81.9433	87.8906	82.5789	87.8906	82.0175	87.8906	82.3486	87.8906	82.1557
90.8203	83.1448	90.8203	83.0884	90.8203	83.2115	90.8203	83.0406	90.8203	83.2892	90.8203	82.9995	90.8203	83.3774	90.8203	82.9625	90.8203	83.4743	90.8203	82.9272	90.8203	83.5767	90.8203	82.8912	90.8203	83.6793	90.8203	82.8524	90.8203	83.7753	90.8203	82.8092	90.8203	83.8566	90.8203	82.7609	90.8203	83.9137	90.8203	82.7083	90.8203	83.9376	90.8203	82.6539	90.8203	83.9203	90.8203	82.6025	90.8203	83.8566	90.8203	82.5614	90.8203	83.7455	90.8203	82.54	90.8203	83.5918	90.8203	82.549	90.8203	83.4063	90.8203	82.5977	90.8203	83.2049	90.8203	82.6918	90.8203	83.0068	90.8203	82.8308
95.2148	83.0448	95.2148	82.9875	95.2148	83.1135	95.2148	82.9409	95.2148	83.1934	95.2148	82.9033	95.2148	83.283	95.2148	82.8723	95.2148	83.3797	95.2148	82.8449	95.2148	83.4799	95.2148	82.8184	95.2148	83.5792	95.2148	82.7904	95.2148	83.672	95.2148	82.7598	95.2148	83.7522	95.2148	82.7267	95.2148	83.813	95.2148	82.6932	95.2148	83.8477	95.2148	82.6631	95.2148	83.8506	95.2148	82.6422	95.2148	83.8175	95.2148	82.6373	95.2148	83.747	95.2148	82.6554	95.2148	83.6411	95.2148	82.7026	95.2148	83.5059	95.2148	82.7822	95.2148	83.351	95.2148	82.8937	95.2148	83.1887	95.2148	83.0322
98.1445	83.4941	98.1445	83.4244	98.1445	83.5698	98.1445	83.3601	98.1445	83.6508	98.1445	83.2996	98.1445	83.7351	98.1445	83.2406	98.1445	83.8199	98.1445	83.1804	98.1445	83.9011	98.1445	83.1163	98.1445	83.9737	98.1445	83.0466	98.1445	84.0322	98.1445	82.9704	98.1445	84.0706	98.1445	82.8888	98.1445	84.0827	98.1445	82.8049	98.1445	84.0631	98.1445	82.7241	98.1445	84.0075	98.1445	82.6535	98.1445	83.914	98.1445	82.6021	98.1445	83.7841	98.1445	82.5791	98.1445	83.6227	98.1445	82.5927	98.1445	83.439	98.1445	82.6484	98.1445	83.2455	98.1445	82.7475	98.1445	83.0564	98.1445	82.8863
101.074	83.6676	101.074	83.5904	101.074	83.7497	101.074	83.5186	101.074	83.8356	101.074	83.4516	101.074	83.9229	101.074	83.3878	101.074	84.0089	101.074	83.3253	101.074	84.0901	101.074	83.2616	101.074	84.1623	101.074	83.1949	101.074	84.2207	101.074	83.1239	101.074	84.2598	101.074	83.0491	101.074	84.2736	101.074	82.9725	101.074	84.2561	101.074	82.8985	101.074	84.2025	101.074	82.8336	101.074	84.1101	101.074	82.7859	101.074	83.9797	101.074	82.7646	101.074	83.8164	101.074	82.7782	101.074	83.6297	101.074	82.8328	101.074	83.4328	101.074	82.9309	101.074	83.2411	101.074	83.0696
105.469	83.9567	105.469	83.9029	105.469	84.012	105.469	83.8501	105.469	84.0687	105.469	83.7967	105.469	84.1256	105.469	83.7404	105.469	84.1808	105.469	83.6784	105.469	84.2312	105.469	83.6074	105.469	84.2728	105.469	83.5247	105.469	84.3003	105.469	83.4282	105.469	84.3075	105.469	83.3176	105.469	84.2875	105.469	83.1948	105.469	84.2335	105.469	83.0648	105.469	84.1404	105.469	82.9355	105.469	84.0061	105.469	82.8179	105.469	83.833	105.469	82.7251	105.469	83.629	105.469	82.6703	105.469	83.4078	105.469	82.6651	105.469	83.1875	105.469	82.7169	105.469	82.9878	105.469	82.8265
108.398	84.0612	108.398	83.998	108.398	84.13	108.398	83.94	108.398	84.2035	108.398	83.8857	108.398	84.2798	108.398	83.8325	108.398	84.3562	108.398	83.777	108.398	84.4289	108.398	83.715	108.398	84.4932	108.398	83.643	108.398	84.5432	108.398	83.558	108.398	84.5722	108.398	83.4589	108.398	84.5725	108.398	83.3473	108.398	84.5365	108.398	83.2278	108.398	84.4581	108.398	83.1087	108.398	84.3338	108.398	83.0013	108.398	84.1649	108.398	82.9195	108.398	83.9585	108.398	82.8777	108.398	83.7281	108.398	82.8884	108.398	83.4924	108.398	82.959	108.398	83.2728	108.398	83.0898
112.793	84.2331	112.793	84.1712	112.793	84.2992	112.793	84.113	112.793	84.3691	112.793	84.0568	112.793	84.4414	112.793	84.0002	112.793	84.5137	112.793	83.9397	112.793	84.5829	112.793	83.872	112.793	84.6448	112.793	83.7938	112.793	84.6938	112.793	83.7032	112.793	84.7235	112.793	83.6001	112.793	84.7264	112.793	83.4867	112.793	84.695	112.793	83.3683	112.793	84.6229	112.793	83.2536	112.793	84.5061	112.793	83.1537	112.793	84.3453	112.793	83.0818	112.793	84.1469	112.793	83.0512	112.793	83.9233	112.793	83.0727	112.793	83.6923	112.793	83.1523	112.793	83.4743	112.793	83.289
117.188	84.3826	117.188	84.3246	117.188	84.4386	117.188	84.2639	117.188	84.4927	117.188	84.199	117.188	84.5442	117.188	84.1273	117.188	84.5916	117.188	84.046	117.188	84.6326	117.188	83.9518	117.188	84.6642	117.188	83.842	117.188	84.6817	117.188	83.7151	117.188	84.6793	117.188	83.5717	117.188	84.6501	117.188	83.4151	117.188	84.5868	117.188	83.2521	117.188	84.4828	117.188	83.0929	117.188	84.3346	117.188	82.9508	117.188	84.1429	117.188	82.8414	117.188	83.9148	117.188	82.7801	117.188	83.6642	117.188	82.7797	117.188	83.4103	117.188	82.8474	117.188	83.1759	117.188	82.9826
120.117	84.2007	120.117	84.1394	120.117	84.2664	120.117	84.0819	120.117	84.3362	120.117	84.0269	120.117	84.4092	120.117	83.9725	120.117	84.4838	120.117	83.9159	120.117	84.5574	120.117	83.8541	120.117	84.6262	120.117	83.7841	120.117	84.6851	120.117	83.7037	120.117	84.7271	120.117	83.6121	120.117	84.7441	120.117	83.5105	120.117	84.7269	120.117	83.4029	120.117	84.6673	120.117	83.2963	120.117	84.5599	120.117	83.2011	120.117	84.404	120.117	83.1302	120.117	84.2058	120.117	83.0974	120.117	83.9784	120.117	83.1155	120.117	83.7415	120.117	83.1925	120.117	83.5179	120.117	83.3294
124.512	84.1952	124.512	84.1159	124.512	84.281	124.512	84.0434	124.512	84.3722	124.512	83.9766	124.512	84.4666	124.512	83.9137	124.512	84.561	124.512	83.8526	124.512	84.6516	124.512	83.7906	124.512	84.7338	124.512	83.7255	124.512	84.8024	124.512	83.6558	124.512	84.8512	124.512	83.5813	124.512	84.8731	124.512	83.5032	124.512	84.8606	124.512	83.4254	124.512	84.8071	124.512	83.3537	124.512	84.7085	124.512	83.2965	124.512	84.5646	124.512	83.2637	124.512	84.3812	124.512	83.2657	124.512	84.1701	124.512	83.3116	124.512	83.9485	124.512	83.4066	124.512	83.7358	124.512	83.5505
128.906	84.3888	128.906	84.311	128.906	84.4754	128.906	84.2436	128.906	84.5683	128.906	84.1863	128.906	84.6642	128.906	84.137	128.906	84.7597	128.906	84.0922	128.906	84.8512	128.906	84.0473	128.906	84.9351	128.906	83.9975	128.906	85.0069	128.906	83.9389	128.906	85.0609	128.906	83.869	128.906	85.0896	128.906	83.7881	128.906	85.0847	128.906	83.6998	128.906	85.0378	128.906	83.611	128.906	84.9428	128.906	83.5323	128.906	84.7979	128.906	83.4769	128.906	84.608	128.906	83.4588	128.906	84.3855	128.906	83.4906	128.906	84.1494	128.906	83.5798	128.906	83.9223	128.906	83.7267
133.301	84.4154	133.301	84.322	133.301	84.5103	133.301	84.2335	133.301	84.6032	133.301	84.1521	133.301	84.6907	133.301	84.0792	133.301	84.7707	133.301	84.0143	133.301	84.8415	133.301	83.9556	133.301	84.9024	133.301	83.9007	133.301	84.9521	133.301	83.8469	133.301	84.9887	133.301	83.7923	133.301	85.0085	133.301	83.7364	133.301	85.0056	133.301	83.681	133.301	84.9732	133.301	83.6309	133.301	84.9048	133.301	83.5933	133.301	84.7967	133.301	83.5777	133.301	84.6498	133.301	83.5943	133.301	84.4715	133.301	83.6516	133.301	84.2752	133.301	83.7541	133.301	84.0783	133.301	83.8994
139.16	84.7434	139.16	84.6697	139.16	84.8086	139.16	84.5883	139.16	84.8644	139.16	84.4999	139.16	84.9104	139.16	84.4049	139.16	84.9464	139.16	84.303	139.16	84.9722	139.16	84.1933	139.16	84.9875	139.16	84.0753	139.16	84.991	139.16	83.9494	139.16	84.9802	139.16	83.8173	139.16	84.9509	139.16	83.6831	139.16	84.8977	139.16	83.5534	139.16	84.8148	139.16	83.437	139.16	84.6979	139.16	83.3444	139.16	84.5455	139.16	83.2865	139.16	84.3611	139.16	83.2731	139.16	84.1535	139.16	83.3112	139.16	83.9368	139.16	83.4032	139.16	83.7283	139.16	83.5454
143.555	84.4889	143.555	84.4126	143.555	84.5654	143.555	84.337	143.555	84.6415	143.555	84.2617	143.555	84.7158	143.555	84.1855	143.555	84.7873	143.555	84.1065	143.555	84.8545	143.555	84.0228	143.555	84.9155	143.555	83.9323	143.555	84.9676	143.555	83.8341	143.555	85.0063	143.555	83.7287	143.555	85.0252	143.555	83.6192	143.555	85.016	143.555	83.5111	143.555	84.9697	143.555	83.413	143.555	84.8789	143.555	83.336	143.555	84.7397	143.555	83.2925	143.555	84.5547	143.555	83.2947	143.555	84.3336	143.555	83.3521	143.555	84.093	143.555	83.4684	143.555	83.8543	143.555	83.6399
147.949	84.2463	147.949	84.1609	147.949	84.3341	147.949	84.0795	147.949	84.4223	147.949	84.0034	147.949	84.5093	147.949	83.9331	147.949	84.5938	147.949	83.8684	147.949	84.675	147.949	83.8084	147.949	84.752	147.949	83.7517	147.949	84.8237	147.949	83.697	147.949	84.8872	147.949	83.6437	147.949	84.9374	147.949	83.5926	147.949	84.9665	147.949	83.5464	147.949	84.9649	147.949	83.5104	147.949	84.9235	147.949	83.4917	147.949	84.836	147.949	83.4992	147.949	84.7018	147.949	83.5415	147.949	84.5275	147.949	83.6255	147.949	84.3268	147.949	83.7534	147.949	84.1181	147.949	83.9213
153.809	84.5745	153.809	84.4385	153.809	84.7058	153.809	84.3037	153.809	84.8261	153.809	84.1746	153.809	84.9295	153.809	84.0543	153.809	85.0117	153.809	83.944	153.809	85.0705	153.809	83.844	153.809	85.1064	153.809	83.7536	153.809	85.1213	153.809	83.6723	153.809	85.1179	153.809	83.6	153.809	85.0982	153.809	83.5379	153.809	85.0622	153.809	83.489	153.809	85.0072	153.809	83.4579	153.809	84.9288	153.809	83.4505	153.809	84.8221	153.809	83.4734	153.809	84.6845	153.809	83.5326	153.809	84.5177	153.809	83.6314	153.809	84.329	153.809	83.7691	153.809	84.1312	153.809	83.9395
159.668	84.8021	159.668	84.6917	159.668	84.9037	159.668	84.5757	159.668	84.9932	159.668	84.457	159.668	85.0683	159.668	84.3375	159.668	85.1279	159.668	84.2177	159.668	85.1723	159.668	84.0976	159.668	85.2024	159.668	83.9769	159.668	85.2194	159.668	83.8563	159.668	85.2234	159.668	83.7379	159.668	85.2126	159.668	83.6265	159.668	85.1828	159.668	83.529	159.668	85.1278	159.668	83.4544	159.668	85.0412	159.668	83.4125	159.668	84.918	159.668	83.4127	159.668	84.7572	159.668	83.4618	159.668	84.5631	159.668	83.5627	159.668	84.3456	159.668	83.7126	159.668	84.1196	159.668	83.9029
165.527	84.8327	165.527	84.7171	165.527	84.9401	165.527	84.5982	165.527	85.0349	165.527	84.48	165.527	85.1137	165.527	84.3657	165.527	85.175	165.527	84.2568	165.527	85.2189	165.527	84.1535	165.527	85.2473	165.527	84.0554	165.527	85.2621	165.527	83.9622	165.527	85.2651	165.527	83.8747	165.527	85.2556	165.527	83.7955	165.527	85.2307	165.527	83.7294	165.527	85.1851	165.527	83.6828	165.527	85.1129	165.527	83.6634	165.527	85.0094	165.527	83.6784	165.527	84.873	165.527	83.7333	165.527	84.7072	165.527	83.83	165.527	84.5202	165.527	83.9665	165.527	84.3246	165.527	84.1352
171.387	84.825	171.387	84.7174	171.387	84.9177	171.387	84.599	171.387	84.9923	171.387	84.4744	171.387	85.047	171.387	84.3476	171.387	85.0811	171.387	84.2222	171.387	85.0958	171.387	84.1005	171.387	85.0931	171.387	83.9845	171.387	85.0752	171.387	83.8756	171.387	85.0437	171.387	83.7757	171.387	84.9985	171.387	83.6873	171.387	84.9377	171.387	83.6143	171.387	84.8584	171.387	83.5614	171.387	84.7579	171.387	83.5337	171.387	84.6355	171.387	83.5358	171.387	84.4935	171.387	83.5707	171.387	84.3372	171.387	83.6393	171.387	84.1745	171.387	83.7395	171.387	84.0147	171.387	83.8669
177.246	84.6943	177.246	84.5819	177.246	84.7966	177.246	84.4632	177.246	84.8849	177.246	84.3413	177.246	84.9561	177.246	84.2182	177.246	85.0092	177.246	84.0948	177.246	85.0448	177.246	83.9712	177.246	85.0651	177.246	83.8473	177.246	85.0723	177.246	83.7236	177.246	85.0667	177.246	83.6024	177.246	85.0454	177.246	83.4877	177.246	85.0022	177.246	83.3858	177.246	84.9286	177.246	83.3042	177.246	84.817	177.246	83.2514	177.246	84.6639	177.246	83.2348	177.246	84.4729	177.246	83.2602	177.246	84.2546	177.246	83.3309	177.246	84.0257	177.246	83.4477	177.246	83.8046	177.246	83.6079
183.105	84.6232	183.105	84.5095	183.105	84.7234	183.105	84.3878	183.105	84.8059	183.105	84.2629	183.105	84.8681	183.105	84.1384	183.105	84.9102	183.105	84.0158	183.105	84.9349	183.105	83.8954	183.105	84.9472	183.105	83.7766	183.105	84.9521	183.105	83.6592	183.105	84.953	183.105	83.545	183.105	84.949	183.105	83.4384	183.105	84.9344	183.105	83.3469	183.105	84.8999	183.105	83.2802	183.105	84.8348	183.105	83.2483	183.105	84.7314	183.105	83.2601	183.105	84.587	183.105	83.3206	183.105	84.4063	183.105	83.4301	183.105	84.1999	183.105	83.5838	183.105	83.9831	183.105	83.7725
188.965	84.6334	188.965	84.5018	188.965	84.7488	188.965	84.36	188.965	84.8429	188.965	84.2144	188.965	84.9123	188.965	84.0705	188.965	84.9559	188.965	83.9324	188.965	84.9757	188.965	83.8023	188.965	84.976	188.965	83.6807	188.965	84.9627	188.965	83.5675	188.965	84.9417	188.965	83.4629	188.965	84.9157	188.965	83.3697	188.965	84.8832	188.965	83.2934	188.965	84.8381	188.965	83.2426	188.965	84.7714	188.965	83.2269	188.965	84.6749	188.965	83.2541	188.965	84.5442	188.965	83.328	188.965	84.3809	188.965	83.4472	188.965	84.1925	188.965	83.6048	188.965	83.991	188.965	83.7904
196.289	85.0064	196.289	84.8857	196.289	85.1033	196.289	84.7472	196.289	85.1714	196.289	84.5967	196.289	85.2083	196.289	84.4387	196.289	85.2146	196.289	84.276	196.289	85.194	196.289	84.1101	196.289	85.1517	196.289	83.9413	196.289	85.0929	196.289	83.7707	196.289	85.0196	196.289	83.6006	196.289	84.9302	196.289	83.4367	196.289	84.8194	196.289	83.2875	196.289	84.6816	196.289	83.1645	196.289	84.5144	196.289	83.0795	196.289	84.3216	196.289	83.0415	196.289	84.1131	196.289	83.0544	196.289	83.9022	196.289	83.1155	196.289	83.7006	196.289	83.2181	196.289	83.5162	196.289	83.3538
203.613	84.763	203.613	84.6664	203.613	84.8516	203.613	84.5646	203.613	84.9279	203.613	84.4583	203.613	84.9868	203.613	84.3453	203.613	85.0248	203.613	84.2215	203.613	85.0408	203.613	84.0817	203.613	85.0369	203.613	83.9209	203.613	85.0166	203.613	83.7372	203.613	84.9827	203.613	83.5333	203.613	84.9336	203.613	83.3186	203.613	84.8622	203.613	83.1093	203.613	84.7575	203.613	82.9265	203.613	84.6091	203.613	82.7923	203.613	84.4127	203.613	82.7238	203.613	84.1737	203.613	82.7292	203.613	83.9073	203.613	82.8066	203.613	83.6337	203.613	82.9473	203.613	83.3725	203.613	83.1397
210.938	84.8014	210.938	84.6342	210.938	84.9403	210.938	84.4518	210.938	85.0401	210.938	84.2655	210.938	85.0942	210.938	84.0836	210.938	85.1024	210.938	83.9098	210.938	85.0711	210.938	83.7439	210.938	85.0116	210.938	83.5838	210.938	84.937	210.938	83.4272	210.938	84.8574	210.938	83.2745	210.938	84.7762	210.938	83.1301	210.938	84.6884	210.938	83.0027	210.938	84.5828	210.938	82.9038	210.938	84.4478	210.938	82.8452	210.938	84.2775	210.938	82.835	210.938	84.076	210.938	82.8752	210.938	83.8563	210.938	82.9617	210.938	83.6357	210.938	83.087	210.938	83.4287	210.938	83.2442
218.262	84.7809	218.262	84.6344	218.262	84.8974	218.262	84.468	218.262	84.9762	218.262	84.2924	218.262	85.014	218.262	84.1162	218.262	85.013	218.262	83.9449	218.262	84.9802	218.262	83.7808	218.262	84.9262	218.262	83.6248	218.262	84.8623	218.262	83.4774	218.262	84.797	218.262	83.3409	218.262	84.7331	218.262	83.2203	218.262	84.6656	218.262	83.1232	218.262	84.5844	218.262	83.0583	218.262	84.4786	218.262	83.0334	218.262	84.3428	218.262	83.0521	218.262	84.1796	218.262	83.1128	218.262	83.9992	218.262	83.2089	218.262	83.8152	218.262	83.3323	218.262	83.6389	218.262	83.4769
225.586	84.7296	225.586	84.608	225.586	84.8158	225.586	84.4589	225.586	84.8616	225.586	84.2922	225.586	84.8664	225.586	84.1174	225.586	84.8333	225.586	83.9414	225.586	84.7693	225.586	83.7686	225.586	84.6839	225.586	83.6013	225.586	84.5879	225.586	83.4418	225.586	84.4908	225.586	83.2938	225.586	84.3972	225.586	83.1639	225.586	84.3051	225.586	83.0608	225.586	84.2071	225.586	82.9936	225.586	84.0956	225.586	82.9693	225.586	83.968	225.586	82.9888	225.586	83.8297	225.586	83.0462	225.586	83.6911	225.586	83.1302	225.586	83.5612	225.586	83.2284	225.586	83.4427	225.586	83.333
232.91	84.6907	232.91	84.5549	232.91	84.8096	232.91	84.4106	232.91	84.902	232.91	84.2637	232.91	84.9577	232.91	84.1176	232.91	84.9689	232.91	83.9728	232.91	84.9323	232.91	83.8274	232.91	84.8505	232.91	83.6779	232.91	84.7322	232.91	83.5209	232.91	84.5886	232.91	83.3552	232.91	84.4289	232.91	83.1837	232.91	84.2563	232.91	83.0139	232.91	84.0674	232.91	82.8577	232.91	83.8566	232.91	82.7277	232.91	83.6229	232.91	82.6337	232.91	83.3765	232.91	82.5799	232.91	83.1373	232.91	82.5658	232.91	82.9285	232.91	82.5902	232.91	82.7664	232.91	82.6551
241.699	84.6939	241.699	84.5014	241.699	84.8567	241.699	84.2963	241.699	84.976	241.699	84.0948	241.699	85.0431	241.699	83.909	241.699	85.0555	241.699	83.7436	241.699	85.0167	241.699	83.5951	241.699	84.9346	241.699	83.4545	241.699	84.8197	241.699	83.3112	241.699	84.681	241.699	83.1584	241.699	84.5236	241.699	82.9965	241.699	84.347	241.699	82.8346	241.699	84.1475	241.699	82.6884	241.699	83.923	241.699	82.5755	241.699	83.6786	241.699	82.509	241.699	83.4284	241.699	82.493	241.699	83.192	241.699	82.5229	241.699	82.9863	241.699	82.5901	241.699	82.8191	241.699	82.6886
250.488	84.8427	250.488	84.5974	250.488	85.0401	250.488	84.3162	250.488	85.1814	250.488	84.0139	250.488	85.2624	250.488	83.7068	250.488	85.2826	250.488	83.4103	250.488	85.2458	250.488	83.1366	250.488	85.1592	250.488	82.8929	250.488	85.0323	250.488	82.6816	250.488	84.8748	250.488	82.5024	250.488	84.6934	250.488	82.3545	250.488	84.4912	250.488	82.2391	250.488	84.2672	250.488	82.1594	250.488	84.0199	250.488	82.1189	250.488	83.7505	250.488	82.119	250.488	83.467	250.488	82.1583	250.488	83.1835	250.488	82.2339	250.488	82.9178	250.488	82.3451	250.488	82.6853	250.488	82.4943
259.277	84.7403	259.277	84.5504	259.277	84.8985	259.277	84.3357	259.277	85.0187	259.277	84.1037	259.277	85.0962	259.277	83.8614	259.277	85.1287	259.277	83.6141	259.277	85.1175	259.277	83.3645	259.277	85.0683	259.277	83.1139	259.277	84.9893	259.277	82.8642	259.277	84.8874	259.277	82.6216	259.277	84.7653	259.277	82.3983	259.277	84.6201	259.277	82.2128	259.277	84.4464	259.277	82.086	259.277	84.2416	259.277	82.0349	259.277	84.0101	259.277	82.0665	259.277	83.7626	259.277	82.1748	259.277	83.5111	259.277	82.3433	259.277	83.2628	259.277	82.5513	259.277	83.0192	259.277	82.7806
268.066	84.6117	268.066	84.4029	268.066	84.7785	268.066	84.1641	268.066	84.8931	268.066	83.9071	268.066	84.9482	268.066	83.6443	268.066	84.9419	268.066	83.3877	268.066	84.8795	268.066	83.1475	268.066	84.7722	268.066	82.93	268.066	84.6338	268.066	82.7366	268.066	84.4759	268.066	82.565	268.066	84.3046	268.066	82.4133	268.066	84.1208	268.066	82.2847	268.066	83.9235	268.066	82.189	268.066	83.7155	268.066	82.1397	268.066	83.5048	268.066	82.1469	268.066	83.3021	268.066	82.2112	268.066	83.1145	268.066	82.3224	268.066	82.9418	268.066	82.4636	268.066	82.7784	268.066	82.6188
276.855	84.8233	276.855	84.6048	276.855	85.0081	276.855	84.3674	276.855	85.1426	276.855	84.121	276.855	85.2134	276.855	83.8698	276.855	85.2152	276.855	83.6138	276.855	85.1525	276.855	83.3515	276.855	85.0389	276.855	83.0834	276.855	84.8913	276.855	82.8148	276.855	84.7222	276.855	82.5565	276.855	84.533	276.855	82.3252	276.855	84.3144	276.855	82.1405	276.855	84.0552	276.855	82.0222	276.855	83.757	276.855	81.984	276.855	83.4445	276.855	82.0281	276.855	83.161	276.855	82.1404	276.855	82.9437	276.855	82.2918	276.855	82.7971	276.855	82.4478	276.855	82.6904	276.855	82.582
287.109	84.5224	287.109	84.2779	287.109	84.7193	287.109	84.004	287.109	84.8537	287.109	83.7174	287.109	84.9187	287.109	83.4298	287.109	84.9172	287.109	83.1478	287.109	84.8604	287.109	82.8751	287.109	84.7649	287.109	82.6155	287.109	84.6479	287.109	82.3753	287.109	84.5218	287.109	82.1644	287.109	84.3893	287.109	81.9966	287.109	84.2422	287.109	81.8873	287.109	84.0657	287.109	81.8481	287.109	83.8468	287.109	81.8799	287.109	83.5854	287.109	81.9694	287.109	83.299	287.109	82.0919	287.109	83.0201	287.109	82.2214	287.109	82.7817	287.109	82.3431	287.109	82.5989	287.109	82.4614
297.363	84.8395	297.363	84.6052	297.363	85.0065	297.363	84.3173	297.363	85.0992	297.363	83.9932	297.363	85.1173	297.363	83.6509	297.363	85.0675	297.363	83.3049	297.363	84.9617	297.363	82.9649	297.363	84.8157	297.363	82.6369	297.363	84.6459	297.363	82.3267	297.363	84.4644	297.363	82.0438	297.363	84.2747	297.363	81.8055	297.363	84.0711	297.363	81.636	297.363	83.8459	297.363	81.5602	297.363	83.5998	297.363	81.5912	297.363	83.3483	297.363	81.7193	297.363	83.1168	297.363	81.9116	297.363	82.925	297.363	82.1258	297.363	82.7724	297.363	82.3265	297.363	82.6386	297.363	82.4965
307.617	84.4738	307.617	84.2607	307.617	84.6427	307.617	84.0249	307.617	84.7503	307.617	83.7864	307.617	84.7899	307.617	83.5572	307.617	84.7669	307.617	83.3393	307.617	84.6989	307.617	83.1256	307.617	84.6114	307.617	82.9039	307.617	84.5273	307.617	82.66	307.617	84.4546	307.617	82.3817	307.617	84.3765	307.617	82.0646	307.617	84.2541	307.617	81.7197	307.617	84.0421	307.617	81.3788	307.617	83.7115	307.617	81.0918	307.617	83.2671	307.617	80.9089	307.617	82.7546	307.617	80.8541	307.617	82.2478	307.617	80.9126	307.617	81.8147	307.617	81.0484	307.617	81.4828	307.617	81.2365
319.336	84.1331	319.336	83.8796	319.336	84.3136	319.336	83.5759	319.336	84.4065	319.336	83.2503	319.336	84.4065	319.336	82.9318	319.336	84.3197	319.336	82.6438	319.336	84.1674	319.336	82.3998	319.336	83.9879	319.336	82.2018	319.336	83.8306	319.336	82.0431	319.336	83.7369	319.336	81.9116	319.336	83.7139	319.336	81.7933	319.336	83.7234	319.336	81.6777	319.336	83.7005	319.336	81.5631	319.336	83.5881	319.336	81.4613	319.336	83.3652	319.336	81.3963	319.336	83.0547	319.336	81.3942	319.336	82.7079	319.336	81.47	319.336	82.3748	319.336	81.6199	319.336	82.0803	319.336	81.8278
329.59	84.3759	329.59	84.0444	329.59	84.6218	329.59	83.6562	329.59	84.7584	329.59	83.2426	329.59	84.7699	329.59	82.8346	329.59	84.652	329.59	82.4613	329.59	84.4171	329.59	82.1492	329.59	84.0998	329.59	81.9207	329.59	83.7609	329.59	81.79	329.59	83.4781	329.59	81.7558	329.59	83.3156	329.59	81.798	329.59	83.2823	329.59	81.884	329.59	83.3215	329.59	81.9826	329.59	83.3494	329.59	82.0754	329.59	83.3066	329.59	82.1601	329.59	83.1839	329.59	82.2447	329.59	83.0136	329.59	82.3377	329.59	82.8394	329.59	82.4418	329.59	82.6866	329.59	82.5568
341.309	84.7668	341.309	84.4086	341.309	85.0354	341.309	83.9828	341.309	85.1983	341.309	83.5188	341.309	85.2428	341.309	83.0503	341.309	85.1603	341.309	82.6067	341.309	84.951	341.309	82.2053	341.309	84.632	341.309	81.8532	341.309	84.2446	341.309	81.5596	341.309	83.8567	341.309	81.3473	341.309	83.5478	341.309	81.2503	341.309	83.371	341.309	81.2939	341.309	83.3143	341.309	81.4711	341.309	83.3067	341.309	81.7398	341.309	83.2704	341.309	82.04	341.309	83.1721	341.309	82.3176	341.309	83.0359	341.309	82.5358	341.309	82.912	341.309	82.6811	341.309	82.8282	341.309	82.7661
353.027	85.1806	353.027	84.8171	353.027	85.4347	353.027	84.3556	353.027	85.5689	353.027	83.8096	353.027	85.5772	353.027	83.2005	353.027	85.4618	353.027	82.5661	353.027	85.2344	353.027	81.9656	353.027	84.9146	353.027	81.4688	353.027	84.5283	353.027	81.1298	353.027	84.1073	353.027	80.9612	353.027	83.6927	353.027	80.936	353.027	83.3359	353.027	81.015	353.027	83.0885	353.027	81.1706	353.027	82.977	353.027	81.3873	353.027	82.9776	353.027	81.649	353.027	83.0237	353.027	81.9325	353.027	83.0437	353.027	82.2123	353.027	82.9958	353.027	82.4697	353.027	82.8743	353.027	82.6937
366.211	85.6032	366.211	85.3258	366.211	85.7722	366.211	84.9529	366.211	85.8233	366.211	84.4989	366.211	85.7515	366.211	83.9768	366.211	85.5569	366.211	83.3973	366.211	85.2481	366.211	82.7738	366.211	84.8459	366.211	82.1312	366.211	84.3891	366.211	81.5149	366.211	83.9331	366.211	80.9902	366.211	83.536	366.211	80.6264	366.211	83.2318	366.211	80.4704	366.211	83.0135	366.211	80.5296	366.211	82.8485	366.211	80.7742	366.211	82.7159	366.211	81.1475	366.211	82.6245	366.211	81.5776	366.211	82.591	366.211	81.9884	366.211	82.6011	366.211	82.3145	366.211	82.5991	366.211	82.5178
379.395	85.458	379.395	85.1954	379.395	85.6467	379.395	84.8846	379.395	85.7359	379.395	84.5438	379.395	85.7068	379.395	84.1788	379.395	85.5527	379.395	83.7812	379.395	85.2807	379.395	83.3346	379.395	84.9097	379.395	82.8286	379.395	84.467	379.395	82.2765	379.395	83.9872	379.395	81.7294	379.395	83.5139	379.395	81.2736	379.395	83.0991	379.395	81.002	379.395	82.7922	379.395	80.9654	379.395	82.6201	379.395	81.145	379.395	82.5752	379.395	81.4723	379.395	82.6234	379.395	81.8651	379.395	82.719	379.395	82.2484	379.395	82.8094	379.395	82.5615	379.395	82.8391	379.395	82.7628
392.578	85.1832	392.578	84.937	392.578	85.3185	392.578	84.6005	392.578	85.3333	392.578	84.1984	392.578	85.2312	392.578	83.7537	392.578	85.0273	392.578	83.2815	392.578	84.7418	392.578	82.7885	392.578	84.3945	392.578	82.2796	392.578	84.0013	392.578	81.7687	392.578	83.5754	392.578	81.2911	392.578	83.1315	392.578	80.9065	392.578	82.6919	392.578	80.6886	392.578	82.2958	392.578	80.6936	392.578	81.997	392.578	80.9202	392.578	81.8412	392.578	81.2958	392.578	81.8335	392.578	81.7064	392.578	81.934	392.578	82.0451	392.578	82.0839	392.578	82.2463	392.578	82.2241	392.578	82.2961
405.762	84.7736	405.762	84.5464	405.762	84.9031	405.762	84.2313	405.762	84.9341	405.762	83.8489	405.762	84.8684	405.762	83.4262	405.762	84.7072	405.762	82.9852	405.762	84.4549	405.762	82.534	405.762	84.1272	405.762	82.0682	405.762	83.7541	405.762	81.5836	405.762	83.3714	405.762	81.0941	405.762	83.0012	405.762	80.6425	405.762	82.6362	405.762	80.2975	405.762	82.2536	405.762	80.1323	405.762	81.8591	405.762	80.1894	405.762	81.5269	405.762	80.4526	405.762	81.3738	405.762	80.8471	405.762	81.4454	405.762	81.2681	405.762	81.6431	405.762	81.6126	405.762	81.8013	405.762	81.8021
420.41	85.2185	420.41	84.9122	420.41	85.4302	420.41	84.5333	420.41	85.5287	420.41	84.1048	420.41	85.5016	420.41	83.6482	420.41	85.3474	420.41	83.1791	420.41	85.0783	420.41	82.7063	420.41	84.7207	420.41	82.2339	420.41	84.3103	420.41	81.7682	420.41	83.8814	420.41	81.3252	420.41	83.4505	420.41	80.9351	420.41	83.0049	420.41	80.6404	420.41	82.5117	420.41	80.4873	420.41	81.9562	420.41	80.5053	420.41	81.392	420.41	80.6818	420.41	80.9566	420.41	80.9501	420.41	80.7925	420.41	81.2076	420.41	80.906	420.41	81.3541	420.41	81.1453	420.41	81.3296
435.059	84.6296	435.059	84.4819	435.059	84.691	435.059	84.2461	435.059	84.6698	435.059	83.9252	435.059	84.5682	435.059	83.5279	435.059	84.3881	435.059	83.0668	435.059	84.1359	435.059	82.5571	435.059	83.8289	435.059	82.0217	435.059	83.4978	435.059	81.5004	435.059	83.1827	435.059	81.0545	435.059	82.9176	435.059	80.7537	435.059	82.7109	435.059	80.6441	435.059	82.539	435.059	80.7235	435.059	82.368	435.059	80.9473	435.059	82.1871	435.059	81.2516	435.059	82.0256	435.059	81.5684	435.059	81.9332	435.059	81.8328	435.059	81.9338	435.059	81.9949	435.059	81.994	435.059	82.0382
451.172	85.1068	451.172	84.7888	451.172	85.306	451.172	84.386	451.172	85.3587	451.172	83.924	451.172	85.2555	451.172	83.411	451.172	85.0058	451.172	82.8415	451.172	84.6304	451.172	82.2099	451.172	84.1539	451.172	81.5266	451.172	83.6054	451.172	80.8285	451.172	83.0232	451.172	80.1833	451.172	82.4476	451.172	79.6896	451.172	81.9021	451.172	79.4622	451.172	81.385	451.172	79.5745	451.172	80.8991	451.172	79.9828	451.172	80.5048	451.172	80.5323	451.172	80.3276	451.172	81.0504	451.172	80.4542	451.172	81.4171	451.172	80.8125	451.172	81.5719	451.172	81.2153	451.172	81.497
465.82	84.7587	465.82	84.5234	465.82	84.8808	465.82	84.1881	465.82	84.8906	465.82	83.7786	465.82	84.7943	465.82	83.3206	465.82	84.595	465.82	82.8241	465.82	84.2935	465.82	82.276	465.82	83.8998	465.82	81.65	465.82	83.4422	465.82	80.9317	465.82	82.9627	465.82	80.1498	465.82	82.4958	465.82	79.4005	465.82	82.0434	465.82	78.8405	465.82	81.574	465.82	78.619	465.82	81.0604	465.82	78.7741	465.82	80.5344	465.82	79.2014	465.82	80.1123	465.82	79.7228	465.82	79.934	465.82	80.1692	465.82	80.0288	465.82	80.4234	465.82	80.2626	465.82	80.4402
483.398	84.3545	483.398	84.1041	483.398	84.52	483.398	83.7915	483.398	84.5849	483.398	83.4424	483.398	84.5344	483.398	83.0697	483.398	84.354	483.398	82.6614	483.398	84.0407	483.398	82.1839	483.398	83.6211	483.398	81.6011	483.398	83.1587	483.398	80.8973	483.398	82.7362	483.398	80.0986	483.398	82.4029	483.398	79.3008	483.398	82.1242	483.398	78.6931	483.398	81.7975	483.398	78.4987	483.398	81.3464	483.398	78.791	483.398	80.8241	483.398	79.399	483.398	80.433	483.398	80.0624	483.398	80.3589	483.398	80.5921	483.398	80.5583	483.398	80.8986	483.398	80.8199	483.398	80.9639
499.512	84.272	499.512	83.9788	499.512	84.448	499.512	83.6058	499.512	84.4969	499.512	83.2129	499.512	84.4221	499.512	82.8518	499.512	84.2285	499.512	82.5234	499.512	83.9206	499.512	82.1657	499.512	83.5111	499.512	81.6832	499.512	83.0306	499.512	80.9956	499.512	82.5347	499.512	80.0808	499.512	82.0933	499.512	79.013	499.512	81.7459	499.512	77.999	499.512	81.4539	499.512	77.3593	499.512	81.1238	499.512	77.3491	499.512	80.7041	499.512	77.9163	499.512	80.2749	499.512	78.7468	499.512	80.0207	499.512	79.5206	499.512	80.038	499.512	80.0436	499.512	80.1936	499.512	80.2511
517.09	83.7061	517.09	83.3833	517.09	83.9428	517.09	83.0358	517.09	84.0496	517.09	82.7323	517.09	84.0055	517.09	82.5197	517.09	83.8163	517.09	82.3838	517.09	83.5131	517.09	82.2394	517.09	83.1399	517.09	81.969	517.09	82.7373	517.09	81.4785	517.09	82.3275	517.09	80.7382	517.09	81.9061	517.09	79.8084	517.09	81.446	517.09	78.8687	517.09	80.9195	517.09	78.2308	517.09	80.3459	517.09	78.1885	517.09	79.8456	517.09	78.706	517.09	79.6198	517.09	79.4436	517.09	79.7686	517.09	80.0924	517.09	80.144	517.09	80.5036	517.09	80.4906	517.09	80.6335
536.133	83.9676	536.133	83.5549	536.133	84.1913	536.133	82.9819	536.133	84.2109	536.133	82.3265	536.133	84.009	536.133	81.735	536.133	83.58	536.133	81.3639	536.133	82.9584	536.133	81.2451	536.133	82.2428	536.133	81.2372	536.133	81.6022	536.133	81.1412	536.133	81.222	536.133	80.821	536.133	81.1551	536.133	80.2428	536.133	81.2208	536.133	79.493	536.133	81.1308	536.133	78.8152	536.133	80.6993	536.133	78.554	536.133	79.9835	536.133	78.86	536.133	79.3596	536.133	79.506	536.133	79.2909	536.133	80.142	536.133	79.7485	536.133	80.536	536.133	80.2889	536.133	80.5878
555.176	84.6619	555.176	84.1798	555.176	84.9413	555.176	83.5209	555.176	85.0064	555.176	82.741	555.176	84.8592	555.176	81.9462	555.176	84.5142	555.176	81.2767	555.176	83.9898	555.176	80.8201	555.176	83.3056	555.176	80.5345	555.176	82.5044	555.176	80.2855	555.176	81.6883	555.176	79.9382	555.176	81.0241	555.176	79.4114	555.176	80.6547	555.176	78.719	555.176	80.5426	555.176	78.0446	555.176	80.4502	555.176	77.7429	555.176	80.1202	555.176	78.0351	555.176	79.4919	555.176	78.7076	555.176	78.8679	555.176	79.36	555.176	78.7602	555.176	79.7082	555.176	79.1867	555.176	79.6278
574.219	84.6339	574.219	84.2526	574.219	84.8154	574.219	83.6929	574.219	84.7952	574.219	82.994	574.219	84.5877	574.219	82.2244	574.219	84.2129	574.219	81.5001	574.219	83.6875	574.219	80.9643	574.219	83.0367	574.219	80.6778	574.219	82.3168	574.219	80.5161	574.219	81.6236	574.219	80.2371	574.219	81.0553	574.219	79.6447	574.219	80.6389	574.219	78.7177	574.219	80.3129	574.219	77.7161	574.219	80.0043	574.219	77.1707	574.219	79.6749	574.219	77.4182	574.219	79.3033	574.219	78.1605	574.219	78.9436	574.219	78.8803	574.219	78.796	574.219	79.2664	574.219	78.9751	574.219	79.2461
594.727	84.5747	594.727	84.1906	594.727	84.7437	594.727	83.5917	594.727	84.7039	594.727	82.8192	594.727	84.4507	594.727	81.9795	594.727	83.9794	594.727	81.2145	594.727	83.3102	594.727	80.6142	594.727	82.4972	594.727	80.1747	594.727	81.6203	594.727	79.8519	594.727	80.7957	594.727	79.5885	594.727	80.1957	594.727	79.2823	594.727	79.9541	594.727	78.8209	594.727	79.9653	594.727	78.2187	594.727	79.9383	594.727	77.7345	594.727	79.7145	594.727	77.7455	594.727	79.4389	594.727	78.3293	594.727	79.4063	594.727	79.1536	594.727	79.6838	594.727	79.8251	594.727	80.0211	594.727	80.1215
615.234	84.6619	615.234	84.2791	615.234	84.8313	615.234	83.6833	615.234	84.7915	615.234	82.8888	615.234	84.5536	615.234	81.9458	615.234	84.1384	615.234	80.9798	615.234	83.5614	615.234	80.2029	615.234	82.8198	615.234	79.7709	615.234	81.9212	615.234	79.5748	615.234	80.9489	615.234	79.3336	615.234	80.1013	615.234	78.8771	615.234	79.6022	615.234	78.2659	615.234	79.4511	615.234	77.7592	615.234	79.3402	615.234	77.667	615.234	78.9737	615.234	78.0609	615.234	78.4346	615.234	78.6608	615.234	78.1922	615.234	79.1207	615.234	78.4544	615.234	79.2849	615.234	78.8786	615.234	79.1816
637.207	85.2219	637.207	84.7592	637.207	85.3573	637.207	83.9948	637.207	85.2163	637.207	83.028	637.207	84.8997	637.207	82.0209	637.207	84.4896	637.207	81.1502	637.207	83.9953	637.207	80.4984	637.207	83.3802	637.207	79.998	637.207	82.6261	637.207	79.5381	637.207	81.7524	637.207	79.0764	637.207	80.8054	637.207	78.6032	637.207	79.9069	637.207	78.0687	637.207	79.3274	637.207	77.4975	637.207	79.2286	637.207	77.2292	637.207	79.2672	637.207	77.7224	637.207	79.0339	637.207	78.8409	637.207	78.7873	637.207	79.9914	637.207	79.2393	637.207	80.7202	637.207	80.1824	637.207	80.7955
659.18	84.9276	659.18	84.6222	659.18	85.0194	659.18	84.0746	659.18	84.9184	659.18	83.2986	659.18	84.612	659.18	82.3699	659.18	84.0958	659.18	81.4093	659.18	83.4247	659.18	80.5498	659.18	82.6841	659.18	79.9073	659.18	81.9243	659.18	79.5384	659.18	81.1911	659.18	79.3621	659.18	80.6058	659.18	79.1494	659.18	80.2386	659.18	78.6669	659.18	79.8965	659.18	77.8876	659.18	79.3291	659.18	77.1641	659.18	78.6732	659.18	77.0728	659.18	78.4334	659.18	77.7259	659.18	78.7132	659.18	78.658	659.18	79.1612	659.18	79.4006	659.18	79.5561	659.18	79.7014
682.617	85.3603	682.617	85.0297	682.617	85.4248	682.617	84.422	682.617	85.2638	682.617	83.5703	682.617	84.9288	682.617	82.5611	682.617	84.4495	682.617	81.5304	682.617	83.8005	682.617	80.6444	682.617	82.9311	682.617	80.0374	682.617	81.8941	682.617	79.6936	682.617	80.9802	682.617	79.4206	682.617	80.537	682.617	79.0314	682.617	80.4881	682.617	78.539	682.617	80.4578	682.617	78.136	682.617	80.1939	682.617	78.0192	682.617	79.586	682.617	78.3024	682.617	78.7953	682.617	79.0055	682.617	78.5779	682.617	79.9011	682.617	79.322	682.617	80.5635	682.617	80.2372	682.617	80.6993
707.52	86.0995	707.52	85.5031	707.52	86.2777	707.52	84.6002	707.52	86.0168	707.52	83.5144	707.52	85.4153	707.52	82.3181	707.52	84.6191	707.52	81.0607	707.52	83.6979	707.52	79.8995	707.52	82.637	707.52	79.1552	707.52	81.4505	707.52	78.9235	707.52	80.2739	707.52	78.7633	707.52	79.3868	707.52	78.2299	707.52	79.0414	707.52	77.3391	707.52	79.1023	707.52	76.6212	707.52	79.1151	707.52	76.7345	707.52	78.7834	707.52	77.6342	707.52	78.1618	707.52	78.8442	707.52	77.7709	707.52	80.0085	707.52	78.4733	707.52	80.7698	707.52	79.869	707.52	80.7736
732.422	85.4571	732.422	85.3332	732.422	85.4474	732.422	84.9101	732.422	85.419	732.422	84.1435	732.422	85.2739	732.422	83.1199	732.422	84.8357	732.422	81.9728	732.422	84.0654	732.422	80.7996	732.422	83.0612	732.422	79.6917	732.422	81.9155	732.422	78.8182	732.422	80.6411	732.422	78.2869	732.422	79.2829	732.422	77.9677	732.422	78.2304	732.422	77.6829	732.422	78.0763	732.422	77.4535	732.422	78.3649	732.422	77.5021	732.422	78.0927	732.422	78.034	732.422	77.3773	732.422	78.917	732.422	77.492	732.422	79.7036	732.422	78.4334	732.422	80.019	732.422	79.2599	732.422	79.8103
757.324	85.8085	757.324	85.3417	757.324	85.9362	757.324	84.6883	757.324	85.6681	757.324	83.9735	757.324	85.1014	757.324	83.2066	757.324	84.4132	757.324	82.3111	757.324	83.6669	757.324	81.2426	757.324	82.7427	757.324	80.1013	757.324	81.5069	757.324	79.1603	757.324	80.0129	757.324	78.6676	757.324	78.6836	757.324	78.4743	757.324	78.2816	757.324	78.1273	757.324	78.8436	757.324	77.445	757.324	79.2888	757.324	76.9031	757.324	78.7562	757.324	77.2561	757.324	77.0737	757.324	78.3475	757.324	75.4797	757.324	79.4303	757.324	76.6837	757.324	80.0792	757.324	78.8744	757.324	80.0124
785.156	85.5672	785.156	85.5308	785.156	85.2563	785.156	85.0789	785.156	84.8645	785.156	84.3142	785.156	84.6154	785.156	83.3442	785.156	84.3875	785.156	82.2287	785.156	83.8827	785.156	81.1508	785.156	83.0126	785.156	80.3028	785.156	81.9151	785.156	79.5057	785.156	80.5529	785.156	78.558	785.156	78.596	785.156	77.7081	785.156	76.8206	785.156	77.0251	785.156	77.3327	785.156	76.0429	785.156	77.9104	785.156	75.2482	785.156	76.6722	785.156	76.0675	785.156	75.3082	785.156	78.0492	785.156	75.6596	785.156	79.5213	785.156	76.0864	785.156	79.7753	785.156	77.1877	785.156	78.8331
811.523	84.4687	811.523	84.549	811.523	84.6792	811.523	84.5619	811.523	85.044	811.523	84.1985	811.523	85.0891	811.523	83.4338	811.523	84.6189	811.523	82.3967	811.523	83.8277	811.523	81.2996	811.523	82.9172	811.523	80.4639	811.523	81.7714	811.523	79.7885	811.523	80.1762	811.523	78.6032	811.523	78.2995	811.523	76.9203	811.523	77.1314	811.523	75.9081	811.523	77.2207	811.523	75.8292	811.523	77.5038	811.523	75.8715	811.523	77.0277	811.523	76.5939	811.523	75.0278	811.523	78.1603	811.523	73.0294	811.523	79.2481	811.523	76.0069	811.523	79.7338	811.523	78.8106	811.523	79.7932
840.82	84.9104	840.82	84.711	840.82	84.6783	840.82	84.3467	840.82	84.0345	840.82	84.0771	840.82	83.3846	840.82	83.7943	840.82	83.2054	840.82	83.2669	840.82	83.2611	840.82	82.5728	840.82	82.9713	840.82	81.8683	840.82	82.1085	840.82	81.0383	840.82	80.6102	840.82	80.0382	840.82	78.4867	840.82	79.0018	840.82	76.5685	840.82	77.821	840.82	76.0718	840.82	76.4392	840.82	76.2913	840.82	75.418	840.82	76.5676	840.82	75.2285	840.82	76.2485	840.82	76.0926	840.82	74.89	840.82	77.6989	840.82	74.1771	840.82	78.7953	840.82	76.1115	840.82	78.2922
870.117	85.1556	870.117	85.5067	870.117	84.6549	870.117	85.3844	870.117	84.1492	870.117	84.5323	870.117	83.53	870.117	82.9473	870.117	82.7186	870.117	81.1067	870.117	81.8865	870.117	80.0258	870.117	81.2899	870.117	79.9225	870.117	80.8875	870.117	79.7499	870.117	80.1369	870.117	78.9197	870.117	78.4	870.117	77.6473	870.117	76.8317	870.117	76.3351	870.117	78.1128	870.117	75.4009	870.117	79.1919	870.117	75.9418	870.117	78.1089	870.117	77.8729	870.117	74.8862	870.117	79.0055	870.117	70.5807	870.117	78.6192	870.117	74.7334	870.117	77.9001	870.117	77.8872	870.117	78.1521
900.879	84.8235	900.879	84.894	900.879	84.3271	900.879	84.7419	900.879	83.5778	900.879	84.6297	900.879	82.9612	900.879	84.3428	900.879	82.5774	900.879	83.3915	900.879	82.1457	900.879	81.7027	900.879	81.6166	900.879	80.1237	900.879	81.1985	900.879	79.4625	900.879	80.6118	900.879	78.9238	900.879	78.7594	900.879	78.011	900.879	74.5709	900.879	77.3071	900.879	74.8214	900.879	76.7277	900.879	78.589	900.879	75.471	900.879	79.3624	900.879	75.1621	900.879	77.718	900.879	76.8644	900.879	72.6626	900.879	78.6129	900.879	67.853	900.879	79.7486	900.879	76.4354	900.879	79.4408
933.105	85.2183	933.105	85.4724	933.105	84.577	933.105	85.3761	933.105	83.5744	933.105	84.9568	933.105	82.4846	933.105	84.0748	933.105	81.8261	933.105	82.5224	933.105	81.6755	933.105	80.6046	933.105	81.6323	933.105	79.5405	933.105	81.5095	933.105	79.4063	933.105	81.052	933.105	79.0681	933.105	79.5623	933.105	78.4263	933.105	76.914	933.105	77.7374	933.105	76.0192	933.105	76.574	933.105	77.1392	933.105	75.0077	933.105	77.1463	933.105	74.9377	933.105	76.1188	933.105	76.6706	933.105	72.8504	933.105	78.5939	933.105	66.4084	933.105	79.3895	933.105	73.9656	933.105	78.2129
965.332	85.5205	965.332	85.7539	965.332	84.6639	965.332	85.4648	965.332	83.7815	965.332	84.9946	965.332	83.3503	965.332	84.3677	965.332	82.7793	965.332	83.2482	965.332	81.7439	965.332	81.4133	965.332	80.7157	965.332	79.5568	965.332	80.2083	965.332	79.2943	965.332	80.0283	965.332	79.7722	965.332	79.3246	965.332	78.9832	965.332	76.5963	965.332	76.4424	965.332	71.9705	965.332	74.1972	965.332	76.21	965.332	74.53	965.332	78.7207	965.332	76.1405	965.332	77.8734	965.332	78.046	965.332	73.8748	965.332	79.426	965.332	68.3271	965.332	79.6355	965.332	74.586	965.332	78.2896
1,000.49	84.5022	1,000.49	84.8962	1,000.49	84.0146	1,000.49	84.817	1,000.49	83.6226	1,000.49	84.4038	1,000.49	83.1396	1,000.49	83.7383	1,000.49	82.697	1,000.49	82.2721	1,000.49	82.1681	1,000.49	79.639	1,000.49	81.3869	1,000.49	77.5074	1,000.49	80.9435	1,000.49	77.9108	1,000.49	81.1231	1,000.49	78.4686	1,000.49	80.7811	1,000.49	78.1146	1,000.49	78.2509	1,000.49	77.0883	1,000.49	73.254	1,000.49	75.2093	1,000.49	74.0741	1,000.49	72.8806	1,000.49	76.1229	1,000.49	74.9543	1,000.49	75.8045	1,000.49	77.5218	1,000.49	72.3332	1,000.49	78.6701	1,000.49	60.245	1,000.49	78.7926	1,000.49	72.2191	1,000.49	77.2105
1,035.64	84.8455	1,035.64	85.0597	1,035.64	84.2065	1,035.64	84.8711	1,035.64	83.8565	1,035.64	84.9439	1,035.64	83.6181	1,035.64	85.0148	1,035.64	82.7164	1,035.64	84.2045	1,035.64	81.344	1,035.64	81.8968	1,035.64	80.2044	1,035.64	77.7012	1,035.64	79.4885	1,035.64	74.3031	1,035.64	79.6367	1,035.64	76.1742	1,035.64	79.759	1,035.64	78.2024	1,035.64	78.6627	1,035.64	79.3113	1,035.64	75.8513	1,035.64	78.7474	1,035.64	71.2618	1,035.64	74.9756	1,035.64	74.7042	1,035.64	71.3538	1,035.64	78.5807	1,035.64	73.3059	1,035.64	77.9473	1,035.64	76.4691	1,035.64	71.2449	1,035.64	78.304	1,035.64	66.9587	1,035.64	76.7708
1,072.27	84.9632	1,072.27	85.177	1,072.27	84.5499	1,072.27	84.9944	1,072.27	83.8338	1,072.27	84.5643	1,072.27	83.089	1,072.27	84.1328	1,072.27	82.8807	1,072.27	83.1604	1,072.27	82.6952	1,072.27	80.9492	1,072.27	81.7158	1,072.27	77.3114	1,072.27	80.0614	1,072.27	73.6185	1,072.27	79.3333	1,072.27	74.5724	1,072.27	80.297	1,072.27	76.9236	1,072.27	80.0487	1,072.27	77.4644	1,072.27	77.6276	1,072.27	75.7966	1,072.27	74.5724	1,072.27	72.8705	1,072.27	73.0516	1,072.27	72.5929	1,072.27	76.274	1,072.27	74.9665	1,072.27	77.1991	1,072.27	76.2717	1,072.27	73.7404	1,072.27	74.9753	1,072.27	67.1494	1,072.27	70.3225
1,108.89	84.8333	1,108.89	85.3282	1,108.89	84.4864	1,108.89	84.7353	1,108.89	84.5173	1,108.89	83.8549	1,108.89	83.822	1,108.89	84.1302	1,108.89	82.6267	1,108.89	84.14	1,108.89	81.8673	1,108.89	82.8898	1,108.89	81.3608	1,108.89	80.7105	1,108.89	79.8576	1,108.89	77.9805	1,108.89	77.7033	1,108.89	76.7917	1,108.89	78.152	1,108.89	77.5937	1,108.89	78.7368	1,108.89	77.1895	1,108.89	77.329	1,108.89	76.0583	1,108.89	76.777	1,108.89	73.0952	1,108.89	75.0516	1,108.89	69.8984	1,108.89	72.4989	1,108.89	73.8086	1,108.89	72.9747	1,108.89	77.0918	1,108.89	72.0299	1,108.89	76.4762	1,108.89	67.4277	1,108.89	70.7027
1,148.44	85.4695	1,148.44	85.472	1,148.44	85.0595	1,148.44	85.0045	1,148.44	84.1092	1,148.44	84.1473	1,148.44	82.8175	1,148.44	83.3136	1,148.44	81.9279	1,148.44	82.5833	1,148.44	81.8836	1,148.44	81.8223	1,148.44	81.9671	1,148.44	80.8001	1,148.44	81.1352	1,148.44	79.1763	1,148.44	79.072	1,148.44	77.8342	1,148.44	77.0043	1,148.44	76.7515	1,148.44	76.7709	1,148.44	75.5715	1,148.44	76.7068	1,148.44	75.2669	1,148.44	75.6746	1,148.44	72.9325	1,148.44	74.8954	1,148.44	67.9839	1,148.44	75.8957	1,148.44	72.0612	1,148.44	76.0196	1,148.44	77.1186	1,148.44	74.617	1,148.44	78.0059	1,148.44	72.7735	1,148.44	74.7568
1,189.45	85.6095	1,189.45	85.4636	1,189.45	85.6552	1,189.45	85.2983	1,189.45	84.8508	1,189.45	84.2993	1,189.45	83.7986	1,189.45	82.8134	1,189.45	83.2494	1,189.45	81.895	1,189.45	82.5632	1,189.45	81.1952	1,189.45	81.5415	1,189.45	80.6411	1,189.45	80.3576	1,189.45	79.2291	1,189.45	78.7452	1,189.45	77.108	1,189.45	77.7425	1,189.45	77.7681	1,189.45	78.1435	1,189.45	78.08	1,189.45	76.0875	1,189.45	75.3381	1,189.45	71.2574	1,189.45	71.1485	1,189.45	72.4889	1,189.45	68.899	1,189.45	75.8997	1,189.45	72.383	1,189.45	76.3542	1,189.45	77.45	1,189.45	74.4834	1,189.45	77.4331	1,189.45	74.4379	1,189.45	74.5869
1,230.47	85.8924	1,230.47	86.0352	1,230.47	85.4882	1,230.47	85.8156	1,230.47	84.8542	1,230.47	84.8468	1,230.47	84.1869	1,230.47	83.3369	1,230.47	83.3129	1,230.47	82.1523	1,230.47	82.105	1,230.47	81.6408	1,230.47	80.9371	1,230.47	81.0813	1,230.47	80.5193	1,230.47	78.6995	1,230.47	80.4683	1,230.47	75.6993	1,230.47	79.2343	1,230.47	76.7908	1,230.47	76.5257	1,230.47	77.2909	1,230.47	76.6669	1,230.47	76.6656	1,230.47	76.9999	1,230.47	76.3837	1,230.47	74.9924	1,230.47	74.5519	1,230.47	76.1936	1,230.47	71.6303	1,230.47	76.4717	1,230.47	74.6169	1,230.47	74.6057	1,230.47	76.9408	1,230.47	73.1591	1,230.47	75.3583
1,274.41	86.0313	1,274.41	86.4841	1,274.41	85.424	1,274.41	86.3266	1,274.41	84.9228	1,274.41	85.524	1,274.41	84.4203	1,274.41	84.1772	1,274.41	83.4335	1,274.41	82.5568	1,274.41	82.0765	1,274.41	81.4453	1,274.41	81.5711	1,274.41	81.0132	1,274.41	81.3596	1,274.41	79.8686	1,274.41	79.6526	1,274.41	76.7864	1,274.41	77.5403	1,274.41	75.1439	1,274.41	78.3815	1,274.41	77.7816	1,274.41	78.4139	1,274.41	78.4315	1,274.41	77.8127	1,274.41	76.1957	1,274.41	76.1531	1,274.41	72.6996	1,274.41	74.0235	1,274.41	72.6828	1,274.41	75.7742	1,274.41	76.6315	1,274.41	75.2947	1,274.41	77.2217	1,274.41	73.6086	1,274.41	74.007
1,319.82	85.6158	1,319.82	86.3931	1,319.82	85.1955	1,319.82	86.7021	1,319.82	84.592	1,319.82	85.6534	1,319.82	84.2879	1,319.82	83.8807	1,319.82	84.2912	1,319.82	82.1007	1,319.82	83.6814	1,319.82	80.2619	1,319.82	82.2892	1,319.82	79.3078	1,319.82	81.0888	1,319.82	79.3162	1,319.82	80.6034	1,319.82	79.0075	1,319.82	79.2119	1,319.82	77.7638	1,319.82	76.7071	1,319.82	76.4498	1,319.82	75.8106	1,319.82	76.6397	1,319.82	75.6347	1,319.82	76.3253	1,319.82	74.9544	1,319.82	74.3944	1,319.82	76.2257	1,319.82	72.3744	1,319.82	75.9776	1,319.82	75.7731	1,319.82	74.6347	1,319.82	77.1863	1,319.82	73.8302	1,319.82	74.8699
1,366.7	85.266	1,366.7	86.1698	1,366.7	84.853	1,366.7	86.5182	1,366.7	84.8018	1,366.7	85.8267	1,366.7	84.6805	1,366.7	84.5769	1,366.7	84.4842	1,366.7	82.8552	1,366.7	83.6725	1,366.7	80.3709	1,366.7	82.5777	1,366.7	77.752	1,366.7	82.0649	1,366.7	78.7571	1,366.7	81.5839	1,366.7	79.0841	1,366.7	79.8933	1,366.7	77.8834	1,366.7	78.801	1,366.7	76.7706	1,366.7	76.6192	1,366.7	76.7773	1,366.7	75.1436	1,366.7	77.7438	1,366.7	76.0195	1,366.7	77.4559	1,366.7	72.2255	1,366.7	72.5065	1,366.7	74.5721	1,366.7	73.9303	1,366.7	75.5551	1,366.7	77.0172	1,366.7	75.8383	1,366.7	76.0443
1,413.57	85.1825	1,413.57	85.7946	1,413.57	84.5269	1,413.57	85.9883	1,413.57	84.4109	1,413.57	85.4084	1,413.57	84.7948	1,413.57	84.0237	1,413.57	84.3497	1,413.57	83.2793	1,413.57	83.0671	1,413.57	83.0994	1,413.57	81.6537	1,413.57	80.5189	1,413.57	81.1902	1,413.57	75.8542	1,413.57	81.588	1,413.57	74.8443	1,413.57	81.1563	1,413.57	76.5606	1,413.57	78.9496	1,413.57	76.2063	1,413.57	75.5894	1,413.57	73.7431	1,413.57	75.3373	1,413.57	75.2734	1,413.57	74.8309	1,413.57	78.3074	1,413.57	70.0139	1,413.57	76.8538	1,413.57	76.3438	1,413.57	72.1897	1,413.57	74.4449	1,413.57	72.7138	1,413.57	72.3075	1,413.57	74.8267
1,463.38	85.564	1,463.38	86.2915	1,463.38	85.0878	1,463.38	85.8263	1,463.38	85.0786	1,463.38	84.9408	1,463.38	84.7641	1,463.38	83.8589	1,463.38	84.4246	1,463.38	82.3844	1,463.38	83.2575	1,463.38	82.1361	1,463.38	81.6134	1,463.38	80.1484	1,463.38	79.8909	1,463.38	74.9296	1,463.38	79.0673	1,463.38	72.2889	1,463.38	78.926	1,463.38	73.0964	1,463.38	77.3275	1,463.38	72.091	1,463.38	75.6631	1,463.38	70.65	1,463.38	74.1135	1,463.38	73.6871	1,463.38	72.9401	1,463.38	77.2538	1,463.38	73.846	1,463.38	74.6284	1,463.38	74.0142	1,463.38	70.9586	1,463.38	76.3781	1,463.38	74.1633	1,463.38	73.8979	1,463.38	74.1226
1,516.11	86.5399	1,516.11	86.4078	1,516.11	86.419	1,516.11	85.7774	1,516.11	85.5743	1,516.11	84.8287	1,516.11	84.3284	1,516.11	83.7565	1,516.11	83.4263	1,516.11	82.2356	1,516.11	82.301	1,516.11	80.7707	1,516.11	81.577	1,516.11	79.287	1,516.11	80.0815	1,516.11	76.4694	1,516.11	78.3329	1,516.11	73.4119	1,516.11	79.0297	1,516.11	73.9499	1,516.11	79.4087	1,516.11	76.0645	1,516.11	77.6523	1,516.11	74.8036	1,516.11	76.7382	1,516.11	70.9134	1,516.11	76.348	1,516.11	72.4427	1,516.11	71.6525	1,516.11	72.9837	1,516.11	70.9579	1,516.11	73.4922	1,516.11	74.3458	1,516.11	75.0181	1,516.11	71.7383	1,516.11	72.7959
1,568.85	85.7299	1,568.85	86.3006	1,568.85	85.7781	1,568.85	86.0935	1,568.85	85.1252	1,568.85	85.1702	1,568.85	84.1079	1,568.85	84.9975	1,568.85	83.9202	1,568.85	83.4673	1,568.85	83.663	1,568.85	79.1823	1,568.85	81.8616	1,568.85	79.4497	1,568.85	78.734	1,568.85	79.8228	1,568.85	76.4439	1,568.85	74.3526	1,568.85	75.2075	1,568.85	71.94	1,568.85	74.2085	1,568.85	74.179	1,568.85	74.8742	1,568.85	76.0842	1,568.85	72.624	1,568.85	74.4203	1,568.85	74.188	1,568.85	75.0182	1,568.85	73.7291	1,568.85	74.9382	1,568.85	68.8756	1,568.85	71.8778	1,568.85	74.2347	1,568.85	74.8119	1,568.85	73.8013	1,568.85	74.4795
1,624.51	84.8125	1,624.51	84.5113	1,624.51	85.2241	1,624.51	84.1109	1,624.51	84.9439	1,624.51	83.866	1,624.51	84.428	1,624.51	83.0413	1,624.51	83.8461	1,624.51	81.399	1,624.51	82.6363	1,624.51	79.741	1,624.51	80.8281	1,624.51	79.4379	1,624.51	78.0127	1,624.51	79.1054	1,624.51	75.6737	1,624.51	75.5198	1,624.51	73.9161	1,624.51	67.347	1,624.51	72.9485	1,624.51	71.2766	1,624.51	74.4851	1,624.51	75.7254	1,624.51	73.183	1,624.51	73.5114	1,624.51	74.7863	1,624.51	70.8009	1,624.51	74.1868	1,624.51	72.3613	1,624.51	71.1079	1,624.51	69.5948	1,624.51	71.1578	1,624.51	70.1288	1,624.51	69.9086	1,624.51	71.5649
1,681.64	84.8643	1,681.64	84.474	1,681.64	85.5204	1,681.64	84.2561	1,681.64	84.3667	1,681.64	83.299	1,681.64	84.3851	1,681.64	82.4143	1,681.64	83.239	1,681.64	80.0788	1,681.64	80.9006	1,681.64	78.0974	1,681.64	78.7361	1,681.64	78.0289	1,681.64	77.1894	1,681.64	78.1399	1,681.64	76.0641	1,681.64	75.3283	1,681.64	75.5469	1,681.64	70.6378	1,681.64	74.3979	1,681.64	70.2399	1,681.64	71.8103	1,681.64	74.7467	1,681.64	74.2737	1,681.64	73.3913	1,681.64	71.4777	1,681.64	66.1944	1,681.64	73.9323	1,681.64	66.6167	1,681.64	71.2022	1,681.64	68.252	1,681.64	65.5537	1,681.64	70.1222	1,681.64	66.9347	1,681.64	69.6624
1,741.7	85.8542	1,741.7	84.3413	1,741.7	85.237	1,741.7	84.1866	1,741.7	84.8763	1,741.7	83.5238	1,741.7	83.9431	1,741.7	80.4488	1,741.7	82.6351	1,741.7	78.9378	1,741.7	81.2411	1,741.7	79.5604	1,741.7	79.7861	1,741.7	79.3426	1,741.7	75.6904	1,741.7	76.2788	1,741.7	74.0777	1,741.7	74.4864	1,741.7	76.4192	1,741.7	73.4906	1,741.7	73.6786	1,741.7	64.2112	1,741.7	73.6206	1,741.7	72.3513	1,741.7	72.8993	1,741.7	74.2709	1,741.7	69.8495	1,741.7	73.6269	1,741.7	72.2942	1,741.7	71.1349	1,741.7	75.7668	1,741.7	66.2086	1,741.7	74.1324	1,741.7	71.2315	1,741.7	73.0787	1,741.7	71.2473
1,803.22	86.4014	1,803.22	85.3074	1,803.22	86.1706	1,803.22	83.159	1,803.22	85.1882	1,803.22	82.6297	1,803.22	82.7634	1,803.22	82.5221	1,803.22	80.5292	1,803.22	80.3052	1,803.22	79.6695	1,803.22	78.6239	1,803.22	79.6973	1,803.22	77.4802	1,803.22	76.5168	1,803.22	75.4493	1,803.22	70.5952	1,803.22	74.1272	1,803.22	71.2684	1,803.22	75.349	1,803.22	74.2825	1,803.22	74.1128	1,803.22	74.7569	1,803.22	64.3298	1,803.22	73.8159	1,803.22	72.8418	1,803.22	70.3858	1,803.22	71.9062	1,803.22	73.3404	1,803.22	71.6276	1,803.22	73.9132	1,803.22	71.2582	1,803.22	71.214	1,803.22	71.256	1,803.22	70.7586	1,803.22	69.8939
1,866.21	85.9345	1,866.21	85.3949	1,866.21	86.1869	1,866.21	83.9342	1,866.21	85.8795	1,866.21	82.3891	1,866.21	83.2912	1,866.21	81.2484	1,866.21	81.3783	1,866.21	81.9875	1,866.21	80.0563	1,866.21	78.6153	1,866.21	79.4812	1,866.21	74.1445	1,866.21	79.171	1,866.21	69.4827	1,866.21	76.195	1,866.21	65.485	1,866.21	69.0555	1,866.21	75.9413	1,866.21	76.6454	1,866.21	76.3969	1,866.21	73.8577	1,866.21	68.823	1,866.21	76.0643	1,866.21	70.7005	1,866.21	72.2711	1,866.21	73.207	1,866.21	71.4808	1,866.21	75.4383	1,866.21	74.177	1,866.21	71.2479	1,866.21	72.4486	1,866.21	70.0549	1,866.21	70.482	1,866.21	68.28
1,932.13	84.7902	1,932.13	84.0989	1,932.13	85.4383	1,932.13	83.6641	1,932.13	84.5259	1,932.13	82.3436	1,932.13	83.138	1,932.13	80.1099	1,932.13	81.0721	1,932.13	78.9291	1,932.13	78.6027	1,932.13	77.4758	1,932.13	78.2781	1,932.13	71.8053	1,932.13	80.2272	1,932.13	62.4054	1,932.13	77.0969	1,932.13	66.0306	1,932.13	67.9282	1,932.13	67.6154	1,932.13	74.3853	1,932.13	77.2392	1,932.13	73.5167	1,932.13	75.0798	1,932.13	71.5247	1,932.13	70.6261	1,932.13	73.6385	1,932.13	74.0821	1,932.13	72.9807	1,932.13	72.1107	1,932.13	69.9305	1,932.13	67.9216	1,932.13	75.0597	1,932.13	67.6299	1,932.13	70.3181	1,932.13	70.4477
1,999.51	85.4743	1,999.51	83.3707	1,999.51	85.7368	1,999.51	81.5004	1,999.51	84.2325	1,999.51	81.8755	1,999.51	82.2287	1,999.51	81.7912	1,999.51	80.5289	1,999.51	80.4647	1,999.51	79.4003	1,999.51	79.204	1,999.51	77.6376	1,999.51	76.8017	1,999.51	78.2216	1,999.51	75.8763	1,999.51	77.1672	1,999.51	72.4451	1,999.51	71.5105	1,999.51	67.4106	1,999.51	74.8599	1,999.51	74.1617	1,999.51	75.956	1,999.51	71.9182	1,999.51	73.1176	1,999.51	67.757	1,999.51	73.8838	1,999.51	73.5759	1,999.51	71.0655	1,999.51	73.8808	1,999.51	71.5704	1,999.51	69.8588	1,999.51	72.9488	1,999.51	68.454	1,999.51	71.094	1,999.51	67.2775
2,069.82	86.4468	2,069.82	83.833	2,069.82	86.8354	2,069.82	81.157	2,069.82	84.6477	2,069.82	82.2424	2,069.82	81.4049	2,069.82	82.0377	2,069.82	79.9963	2,069.82	79.6186	2,069.82	80.124	2,069.82	78.5222	2,069.82	79.3418	2,069.82	74.0149	2,069.82	78.9013	2,069.82	72.0983	2,069.82	77.3125	2,069.82	75.8142	2,069.82	72.0181	2,069.82	71.4679	2,069.82	74.7914	2,069.82	70.1216	2,069.82	76.7503	2,069.82	74.0253	2,069.82	72.9453	2,069.82	67.1985	2,069.82	72.3735	2,069.82	72.3229	2,069.82	70.8407	2,069.82	72.938	2,069.82	71.6284	2,069.82	67.0752	2,069.82	73.0058	2,069.82	66.8321	2,069.82	73.5866	2,069.82	67.9265
2,143.07	86.1399	2,143.07	83.9435	2,143.07	86.9712	2,143.07	82.1875	2,143.07	85.1065	2,143.07	81.0714	2,143.07	81.196	2,143.07	79.9502	2,143.07	78.9443	2,143.07	77.7741	2,143.07	79.5777	2,143.07	78.0057	2,143.07	78.9012	2,143.07	76.8077	2,143.07	78.608	2,143.07	72.4225	2,143.07	78.1046	2,143.07	69.6239	2,143.07	72.0863	2,143.07	73.3239	2,143.07	73.0531	2,143.07	67.9384	2,143.07	77.1288	2,143.07	73.1456	2,143.07	75.4932	2,143.07	71.7444	2,143.07	71.4639	2,143.07	70.3744	2,143.07	70.2928	2,143.07	73.8207	2,143.07	69.7217	2,143.07	67.4459	2,143.07	72.3582	2,143.07	65.2842	2,143.07	73.9073	2,143.07	70.6309
2,219.24	84.9605	2,219.24	83.1635	2,219.24	86.1831	2,219.24	81.3555	2,219.24	85.0723	2,219.24	78.8837	2,219.24	81.8972	2,219.24	77.8365	2,219.24	79.3914	2,219.24	79.0554	2,219.24	79.7795	2,219.24	79.5192	2,219.24	80.289	2,219.24	76.6614	2,219.24	79.181	2,219.24	75.9662	2,219.24	75.1748	2,219.24	73.6614	2,219.24	68.4411	2,219.24	73.6564	2,219.24	69.779	2,219.24	71.6859	2,219.24	77.4727	2,219.24	70.0656	2,219.24	76.706	2,219.24	72.3653	2,219.24	73.3965	2,219.24	70.2291	2,219.24	68.206	2,219.24	74.3243	2,219.24	69.1794	2,219.24	67.7216	2,219.24	69.175	2,219.24	61.0398	2,219.24	72.3255	2,219.24	65.2504
2,296.88	85.4312	2,296.88	83.0869	2,296.88	85.6909	2,296.88	79.2362	2,296.88	83.6781	2,296.88	77.7655	2,296.88	80.3386	2,296.88	79.27	2,296.88	80.6	2,296.88	80.4946	2,296.88	81.3731	2,296.88	79.2498	2,296.88	81.174	2,296.88	79.8406	2,296.88	79.8516	2,296.88	79.2707	2,296.88	75.973	2,296.88	77.0658	2,296.88	69.1053	2,296.88	75.2811	2,296.88	62.045	2,296.88	71.6938	2,296.88	76.5305	2,296.88	70.3699	2,296.88	75.1879	2,296.88	74.0065	2,296.88	74.4118	2,296.88	69.882	2,296.88	66.1253	2,296.88	72.2166	2,296.88	66.7613	2,296.88	67.0456	2,296.88	67.0324	2,296.88	45.0262	2,296.88	73.947	2,296.88	68.9219
2,378.91	85.7408	2,378.91	83.9518	2,378.91	85.658	2,378.91	77.9304	2,378.91	83.5014	2,378.91	76.2857	2,378.91	80.52	2,378.91	79.9136	2,378.91	80.2678	2,378.91	80.1977	2,378.91	80.701	2,378.91	80.4221	2,378.91	80.3641	2,378.91	77.3394	2,378.91	80.9732	2,378.91	74.2321	2,378.91	80.2597	2,378.91	73.3111	2,378.91	75.1137	2,378.91	68.8854	2,378.91	62.6254	2,378.91	74.6976	2,378.91	75.2242	2,378.91	68.6534	2,378.91	76.2219	2,378.91	74.1949	2,378.91	74.6785	2,378.91	72.0633	2,378.91	67.1969	2,378.91	71.4139	2,378.91	65.332	2,378.91	68.6045	2,378.91	66.0166	2,378.91	50.0364	2,378.91	72.3402	2,378.91	69.6571
2,462.4	85.3571	2,462.4	83.4569	2,462.4	84.6629	2,462.4	78.8206	2,462.4	82.2112	2,462.4	75.8013	2,462.4	79.2348	2,462.4	80.126	2,462.4	81.1747	2,462.4	80.6883	2,462.4	81.6703	2,462.4	78.2822	2,462.4	79.9075	2,462.4	76.4708	2,462.4	81.7063	2,462.4	76.6821	2,462.4	80.529	2,462.4	72.3377	2,462.4	76.5304	2,462.4	71.544	2,462.4	60.213	2,462.4	72.7435	2,462.4	74.7129	2,462.4	71.4085	2,462.4	75.6683	2,462.4	71.5562	2,462.4	73.8256	2,462.4	73.0951	2,462.4	71.6955	2,462.4	70.9775	2,462.4	64.3207	2,462.4	66.9222	2,462.4	64.0794	2,462.4	56.3881	2,462.4	70.2613	2,462.4	66.7437
2,548.83	85.5462	2,548.83	82.7481	2,548.83	84.8399	2,548.83	77.5621	2,548.83	80.0661	2,548.83	74.7261	2,548.83	75.7968	2,548.83	78.707	2,548.83	80.4588	2,548.83	79.3683	2,548.83	81.0095	2,548.83	79.121	2,548.83	78.9366	2,548.83	77.6038	2,548.83	79.0203	2,548.83	73.9539	2,548.83	81.3595	2,548.83	75.1696	2,548.83	77.9358	2,548.83	71.8164	2,548.83	54.013	2,548.83	71.0457	2,548.83	73.7048	2,548.83	71.1716	2,548.83	73.6032	2,548.83	68.7572	2,548.83	72.8035	2,548.83	72.1521	2,548.83	72.3968	2,548.83	72.4539	2,548.83	68.393	2,548.83	67.1528	2,548.83	60.3187	2,548.83	42.2169	2,548.83	70.7172	2,548.83	67.4118
2,639.65	85.0478	2,639.65	82.5497	2,639.65	84.6147	2,639.65	74.797	2,639.65	80.179	2,639.65	72.3592	2,639.65	77.3397	2,639.65	77.1474	2,639.65	79.9994	2,639.65	80.6244	2,639.65	80.793	2,639.65	80.5105	2,639.65	79.5175	2,639.65	79.637	2,639.65	77.1837	2,639.65	78.6962	2,639.65	80.3658	2,639.65	76.8639	2,639.65	73.9206	2,639.65	72.5373	2,639.65	60.0027	2,639.65	69.0528	2,639.65	71.3294	2,639.65	69.7358	2,639.65	74.2078	2,639.65	70.358	2,639.65	72.5483	2,639.65	70.911	2,639.65	71.8323	2,639.65	71.7505	2,639.65	68.4607	2,639.65	66.3837	2,639.65	64.4422	2,639.65	58.7674	2,639.65	72.1525	2,639.65	68.1169
2,731.93	84.3074	2,731.93	81.9091	2,731.93	83.2175	2,731.93	72.6887	2,731.93	78.6543	2,731.93	68.8009	2,731.93	78.2233	2,731.93	79.1672	2,731.93	80.7062	2,731.93	80.6948	2,731.93	80.9516	2,731.93	81.111	2,731.93	80.3348	2,731.93	77.2364	2,731.93	75.4226	2,731.93	75.92	2,731.93	77.4917	2,731.93	72.972	2,731.93	71.8998	2,731.93	70.9428	2,731.93	67.6565	2,731.93	70.2713	2,731.93	67.1888	2,731.93	71.004	2,731.93	73.8106	2,731.93	67.9741	2,731.93	72.8568	2,731.93	70.4816	2,731.93	70.3865	2,731.93	70.6987	2,731.93	63.4131	2,731.93	65.9113	2,731.93	61.6484	2,731.93	61.0284	2,731.93	70.7299	2,731.93	60.338
2,828.61	84.5404	2,828.61	81.7931	2,828.61	83.2049	2,828.61	74.9631	2,828.61	78.367	2,828.61	70.9973	2,828.61	77.4655	2,828.61	79.8935	2,828.61	80.9195	2,828.61	81.4714	2,828.61	81.3992	2,828.61	79.5401	2,828.61	79.351	2,828.61	77.9425	2,828.61	77.2062	2,828.61	72.787	2,828.61	79.0238	2,828.61	69.9817	2,828.61	68.1034	2,828.61	71.2407	2,828.61	69.6603	2,828.61	70.5219	2,828.61	50.9985	2,828.61	69.5151	2,828.61	74.5689	2,828.61	68.8355	2,828.61	70.1311	2,828.61	67.8014	2,828.61	67.8662	2,828.61	68.1766	2,828.61	65.8343	2,828.61	65.1937	2,828.61	58.8454	2,828.61	61.2693	2,828.61	71.1946	2,828.61	65.7681
2,928.22	83.798	2,928.22	81.7692	2,928.22	82.6346	2,928.22	75.1729	2,928.22	76.8107	2,928.22	72.7075	2,928.22	75.8933	2,928.22	80.1207	2,928.22	80.7886	2,928.22	80.7924	2,928.22	81.9665	2,928.22	79.402	2,928.22	80.1924	2,928.22	75.4925	2,928.22	78.5162	2,928.22	76.16	2,928.22	76.9898	2,928.22	73.5331	2,928.22	75.2168	2,928.22	68.8638	2,928.22	69.6182	2,928.22	66.3359	2,928.22	68.2236	2,928.22	65.5373	2,928.22	74.9181	2,928.22	65.3946	2,928.22	68.0317	2,928.22	68.3902	2,928.22	65.4835	2,928.22	67.0832	2,928.22	61.4004	2,928.22	64.4866	2,928.22	60.9061	2,928.22	64.314	2,928.22	71.1376	2,928.22	63.4094
3,030.76	83.1801	3,030.76	82.0387	3,030.76	81.9484	3,030.76	73.2313	3,030.76	76.0208	3,030.76	74.3243	3,030.76	73.4901	3,030.76	80.2263	3,030.76	80.7895	3,030.76	81.0855	3,030.76	82.3964	3,030.76	77.9909	3,030.76	80.1749	3,030.76	76.6701	3,030.76	78.3988	3,030.76	74.3739	3,030.76	75.4202	3,030.76	68.4014	3,030.76	77.9377	3,030.76	67.5431	3,030.76	65.9436	3,030.76	67.3056	3,030.76	73.3079	3,030.76	66.5974	3,030.76	72.0803	3,030.76	64.2439	3,030.76	69.2745	3,030.76	68.1814	3,030.76	65.6855	3,030.76	65.7343	3,030.76	57.8191	3,030.76	64.0081	3,030.76	46.4772	3,030.76	60.803	3,030.76	69.8206	3,030.76	64.8158
3,137.7	83.696	3,137.7	82.74	3,137.7	81.5152	3,137.7	73.7308	3,137.7	74.3425	3,137.7	76.0658	3,137.7	71.4944	3,137.7	80.5798	3,137.7	81.2264	3,137.7	80.5607	3,137.7	82.9142	3,137.7	77.262	3,137.7	81.2371	3,137.7	76.3494	3,137.7	78.8666	3,137.7	69.8737	3,137.7	76.1698	3,137.7	70.9493	3,137.7	79.0603	3,137.7	70.2754	3,137.7	63.097	3,137.7	67.2709	3,137.7	72.7672	3,137.7	66.6808	3,137.7	71.0713	3,137.7	66.1461	3,137.7	69.1955	3,137.7	66.7971	3,137.7	64.7692	3,137.7	67.1857	3,137.7	55.2777	3,137.7	64.0762	3,137.7	43.6734	3,137.7	58.4152	3,137.7	69.5835	3,137.7	63.9757
3,249.02	83.9229	3,249.02	82.9985	3,249.02	80.9758	3,249.02	72.4631	3,249.02	73.8396	3,249.02	77.1015	3,249.02	72.1217	3,249.02	80.9171	3,249.02	81.0803	3,249.02	79.9206	3,249.02	82.1329	3,249.02	79.3246	3,249.02	81.0131	3,249.02	73.7013	3,249.02	79.9741	3,249.02	76.2783	3,249.02	77.5308	3,249.02	72.7488	3,249.02	79.223	3,249.02	71.1547	3,249.02	61.9984	3,249.02	65.7293	3,249.02	69.5931	3,249.02	65.5782	3,249.02	68.9419	3,249.02	65.3419	3,249.02	68.1738	3,249.02	68.8073	3,249.02	64.157	3,249.02	66.7277	3,249.02	54.6208	3,249.02	66.2105	3,249.02	42.1453	3,249.02	58.5016	3,249.02	68.3886	3,249.02	63.5267
3,363.28	84.3343	3,363.28	82.623	3,363.28	79.8277	3,363.28	74.955	3,363.28	71.3963	3,363.28	77.6179	3,363.28	72.9449	3,363.28	81.0791	3,363.28	80.4363	3,363.28	80.7862	3,363.28	81.5937	3,363.28	78.8367	3,363.28	80.7264	3,363.28	77.4494	3,363.28	80.0716	3,363.28	75.1644	3,363.28	77.3089	3,363.28	69.028	3,363.28	77.3195	3,363.28	68.1611	3,363.28	67.0063	3,363.28	67.8813	3,363.28	67.4493	3,363.28	66.3878	3,363.28	69.6272	3,363.28	64.4597	3,363.28	66.6262	3,363.28	67.1254	3,363.28	64.3879	3,363.28	67.4614	3,363.28	53.7091	3,363.28	63.5218	3,363.28	54.6262	3,363.28	60.5685	3,363.28	67.4871	3,363.28	63.0922
3,481.93	84.5468	3,481.93	82.1741	3,481.93	80.3393	3,481.93	75.2017	3,481.93	69.2941	3,481.93	78.811	3,481.93	75.2219	3,481.93	81.5909	3,481.93	79.9951	3,481.93	81.6464	3,481.93	81.8355	3,481.93	78.4141	3,481.93	81.8339	3,481.93	76.9426	3,481.93	78.4373	3,481.93	69.5804	3,481.93	78.1148	3,481.93	73.0345	3,481.93	71.673	3,481.93	69.573	3,481.93	68.4167	3,481.93	66.2029	3,481.93	72.6118	3,481.93	62.7044	3,481.93	69.6367	3,481.93	64.3742	3,481.93	65.8845	3,481.93	65.8478	3,481.93	64.0276	3,481.93	66.5634	3,481.93	52.3999	3,481.93	62.0325	3,481.93	55.6139	3,481.93	59.9825	3,481.93	67.241	3,481.93	65.4434
3,604.98	84.2808	3,604.98	82.2279	3,604.98	81.378	3,604.98	75.2407	3,604.98	69.2342	3,604.98	79.0865	3,604.98	78.7035	3,604.98	82.2261	3,604.98	79.4207	3,604.98	80.8794	3,604.98	81.4029	3,604.98	78.8855	3,604.98	82.1105	3,604.98	74.5237	3,604.98	77.7627	3,604.98	73.8907	3,604.98	75.8361	3,604.98	67.7036	3,604.98	64.2809	3,604.98	66.1929	3,604.98	66.9559	3,604.98	65.4657	3,604.98	72.5322	3,604.98	62.7499	3,604.98	69.3945	3,604.98	59.2139	3,604.98	63.5897	3,604.98	63.5827	3,604.98	60.9297	3,604.98	65.178	3,604.98	57.3385	3,604.98	61.2662	3,604.98	59.0014	3,604.98	59.2023	3,604.98	66.1583	3,604.98	65.5954
3,732.42	84.497	3,732.42	81.7819	3,732.42	81.2714	3,732.42	76.4915	3,732.42	71.4459	3,732.42	80.3584	3,732.42	80.3587	3,732.42	82.4081	3,732.42	80.7544	3,732.42	80.5523	3,732.42	80.9636	3,732.42	76.786	3,732.42	81.274	3,732.42	73.5947	3,732.42	77.4743	3,732.42	70.0345	3,732.42	75.3811	3,732.42	68.4863	3,732.42	69.3932	3,732.42	68.3722	3,732.42	62.262	3,732.42	63.6042	3,732.42	69.7261	3,732.42	63.4555	3,732.42	65.7571	3,732.42	59.2928	3,732.42	64.6678	3,732.42	59.571	3,732.42	62.3543	3,732.42	64.252	3,732.42	61.4056	3,732.42	58.2602	3,732.42	58.7228	3,732.42	57.1979	3,732.42	65.9458	3,732.42	64.6947
3,864.26	84.6459	3,864.26	82.7818	3,864.26	82.084	3,864.26	77.3594	3,864.26	73.0789	3,864.26	81.4594	3,864.26	81.5509	3,864.26	82.9571	3,864.26	81.6303	3,864.26	80.0125	3,864.26	80.9047	3,864.26	75.1632	3,864.26	80.6915	3,864.26	72.2373	3,864.26	78.193	3,864.26	69.6686	3,864.26	74.3181	3,864.26	69.1037	3,864.26	70.8022	3,864.26	66.4444	3,864.26	62.9697	3,864.26	66.0824	3,864.26	61.6495	3,864.26	63.2245	3,864.26	63.4921	3,864.26	62.4709	3,864.26	64.4687	3,864.26	56.3679	3,864.26	63.5485	3,864.26	61.2144	3,864.26	60.728	3,864.26	53.9586	3,864.26	58.757	3,864.26	50.8665	3,864.26	65.45	3,864.26	66.1558
4,000.49	83.7881	4,000.49	81.9522	4,000.49	81.8598	4,000.49	76.2097	4,000.49	74.7904	4,000.49	82.388	4,000.49	81.6765	4,000.49	82.1671	4,000.49	82.2005	4,000.49	78.3743	4,000.49	79.2521	4,000.49	74.8026	4,000.49	80.2403	4,000.49	70.9284	4,000.49	76.9976	4,000.49	72.5743	4,000.49	71.6046	4,000.49	66.4509	4,000.49	70.5223	4,000.49	68.5881	4,000.49	69.3199	4,000.49	66.3261	4,000.49	65.6491	4,000.49	65.9365	4,000.49	68.3537	4,000.49	63.5489	4,000.49	63.9448	4,000.49	62.9688	4,000.49	62.4958	4,000.49	60.4711	4,000.49	62.1521	4,000.49	57.0995	4,000.49	61.0255	4,000.49	57.1218	4,000.49	63.2373	4,000.49	64.7609
4,141.11	84.1784	4,141.11	82.168	4,141.11	81.2163	4,141.11	79.3906	4,141.11	77.0229	4,141.11	82.7296	4,141.11	81.8993	4,141.11	82.1783	4,141.11	82.0545	4,141.11	77.3488	4,141.11	79.2186	4,141.11	73.9038	4,141.11	79.9717	4,141.11	74.3576	4,141.11	75.0031	4,141.11	68.8083	4,141.11	72.8958	4,141.11	72.8281	4,141.11	73.4037	4,141.11	67.6957	4,141.11	70.8471	4,141.11	67.9613	4,141.11	67.4404	4,141.11	65.572	4,141.11	64.338	4,141.11	63.6165	4,141.11	55.9549	4,141.11	62.8125	4,141.11	65.89	4,141.11	60.8144	4,141.11	59.0016	4,141.11	59.1333	4,141.11	60.0758	4,141.11	55.3831	4,141.11	64.3128	4,141.11	62.6375
4,287.6	84.7648	4,287.6	82.3275	4,287.6	81.2401	4,287.6	80.1389	4,287.6	78.4619	4,287.6	83.1006	4,287.6	82.069	4,287.6	81.2204	4,287.6	81.4637	4,287.6	77.3728	4,287.6	78.4418	4,287.6	75.5669	4,287.6	78.5336	4,287.6	73.7291	4,287.6	73.4371	4,287.6	74.2047	4,287.6	74.693	4,287.6	68.8284	4,287.6	74.6078	4,287.6	68.0307	4,287.6	68.4569	4,287.6	66.8209	4,287.6	58.1874	4,287.6	65.2867	4,287.6	56.0789	4,287.6	64.8154	4,287.6	67.4985	4,287.6	63.9464	4,287.6	64.4432	4,287.6	62.42	4,287.6	57.9132	4,287.6	59.2827	4,287.6	61.5758	4,287.6	53.6657	4,287.6	63.4064	4,287.6	62.5118
4,438.48	84.0942	4,438.48	81.414	4,438.48	81.237	4,438.48	79.8689	4,438.48	78.6637	4,438.48	82.5503	4,438.48	82.9707	4,438.48	80.8864	4,438.48	81.0212	4,438.48	76.5496	4,438.48	77.8966	4,438.48	76.6902	4,438.48	74.484	4,438.48	75.8231	4,438.48	76.1787	4,438.48	69.4087	4,438.48	75.4485	4,438.48	70.6902	4,438.48	72.9301	4,438.48	67.9642	4,438.48	55.7877	4,438.48	64.3216	4,438.48	57.5892	4,438.48	65.0148	4,438.48	63.1656	4,438.48	62.3579	4,438.48	69.1702	4,438.48	62.2301	4,438.48	56.112	4,438.48	63.6091	4,438.48	63.4705	4,438.48	54.7505	4,438.48	59.337	4,438.48	49.6171	4,438.48	62.9146	4,438.48	62.4384
4,595.21	85.2	4,595.21	81.4159	4,595.21	82.2973	4,595.21	82.3493	4,595.21	78.9936	4,595.21	83.4503	4,595.21	82.9218	4,595.21	79.8274	4,595.21	81.0996	4,595.21	78.5252	4,595.21	76.2767	4,595.21	75.5427	4,595.21	74.3839	4,595.21	72.6291	4,595.21	78.7043	4,595.21	71.1018	4,595.21	75.3865	4,595.21	66.2545	4,595.21	68.3477	4,595.21	66.0607	4,595.21	63.9916	4,595.21	65.3845	4,595.21	60.81	4,595.21	63.364	4,595.21	63.0397	4,595.21	61.8305	4,595.21	67.8566	4,595.21	61.441	4,595.21	57.37	4,595.21	60.2976	4,595.21	61.9617	4,595.21	57.7026	4,595.21	60.8974	4,595.21	52.6078	4,595.21	62.8418	4,595.21	61.6492
4,756.35	84.8122	4,756.35	82.7275	4,756.35	83.1401	4,756.35	82.2886	4,756.35	81.1389	4,756.35	82.4579	4,756.35	82.8671	4,756.35	79.879	4,756.35	80.9718	4,756.35	77.4338	4,756.35	73.728	4,756.35	75.9298	4,756.35	77.3694	4,756.35	72.7793	4,756.35	80.1263	4,756.35	68.135	4,756.35	73.123	4,756.35	69.0038	4,756.35	69.1471	4,756.35	67.589	4,756.35	65.6985	4,756.35	65.4748	4,756.35	55.8815	4,756.35	64.0844	4,756.35	59.1509	4,756.35	63.7508	4,756.35	63.2167	4,756.35	59.105	4,756.35	59.0304	4,756.35	63.2773	4,756.35	61.4734	4,756.35	58.1826	4,756.35	60.6135	4,756.35	54.6766	4,756.35	61.9643	4,756.35	62.4865
4,924.8	85.3665	4,924.8	82.6581	4,924.8	83.615	4,924.8	83.2223	4,924.8	81.1159	4,924.8	82.4229	4,924.8	83.0865	4,924.8	80.3363	4,924.8	80.2958	4,924.8	77.7481	4,924.8	73.1638	4,924.8	74.5786	4,924.8	78.8275	4,924.8	72.1542	4,924.8	77.522	4,924.8	71.8517	4,924.8	71.1118	4,924.8	68.3873	4,924.8	67.543	4,924.8	67.7947	4,924.8	64.0152	4,924.8	66.8579	4,924.8	49.1378	4,924.8	64.8909	4,924.8	60.1759	4,924.8	63.9272	4,924.8	44.1613	4,924.8	62.9183	4,924.8	59.3698	4,924.8	60.5742	4,924.8	58.0547	4,924.8	62.183	4,924.8	56.5495	4,924.8	56.4863	4,924.8	63.3592	4,924.8	61.1824
5,097.66	85.398	5,097.66	82.9861	5,097.66	83.314	5,097.66	83.9257	5,097.66	82.0926	5,097.66	82.4273	5,097.66	82.8514	5,097.66	80.7429	5,097.66	79.6494	5,097.66	77.0664	5,097.66	75.1985	5,097.66	74.9457	5,097.66	79.4564	5,097.66	74.4775	5,097.66	74.6259	5,097.66	70.6471	5,097.66	71.4622	5,097.66	69.8803	5,097.66	68.4582	5,097.66	67.4869	5,097.66	65.0479	5,097.66	66.1125	5,097.66	45.9892	5,097.66	65.3032	5,097.66	62.5196	5,097.66	63.3874	5,097.66	59.7453	5,097.66	61.7909	5,097.66	54.7261	5,097.66	63.0251	5,097.66	57.8982	5,097.66	59.9354	5,097.66	60.579	5,097.66	52.5068	5,097.66	61.2728	5,097.66	60.3678
5,277.83	85.1525	5,277.83	83.8718	5,277.83	84.5605	5,277.83	83.0423	5,277.83	82.5681	5,277.83	82.0108	5,277.83	82.6198	5,277.83	80.184	5,277.83	79.1438	5,277.83	77.1684	5,277.83	75.3151	5,277.83	75.8362	5,277.83	77.4683	5,277.83	73.0205	5,277.83	73.4447	5,277.83	71.443	5,277.83	71.4119	5,277.83	68.0147	5,277.83	69.4426	5,277.83	66.0753	5,277.83	64.712	5,277.83	65.5072	5,277.83	45.3601	5,277.83	63.8242	5,277.83	60.9604	5,277.83	63.4786	5,277.83	60.6947	5,277.83	61.8898	5,277.83	54.4162	5,277.83	60.4996	5,277.83	57.7621	5,277.83	60.1562	5,277.83	60.553	5,277.83	51.5827	5,277.83	56.3701	5,277.83	62.501
5,463.87	84.8646	5,463.87	83.5394	5,463.87	84.3595	5,463.87	83.0429	5,463.87	82.6821	5,463.87	83.3629	5,463.87	82.4845	5,463.87	79.0968	5,463.87	79.9992	5,463.87	77.473	5,463.87	76.4401	5,463.87	75.4038	5,463.87	74.2878	5,463.87	73.228	5,463.87	72.4375	5,463.87	68.7849	5,463.87	71.0099	5,463.87	68.796	5,463.87	69.4803	5,463.87	64.4446	5,463.87	64.6333	5,463.87	64.617	5,463.87	55.6769	5,463.87	61.7095	5,463.87	43.9417	5,463.87	63.6243	5,463.87	60.3302	5,463.87	60.6375	5,463.87	51.7188	5,463.87	61.7732	5,463.87	58.892	5,463.87	61.3708	5,463.87	53.9172	5,463.87	52.4093	5,463.87	58.7105	5,463.87	59.1066
5,657.23	85.1519	5,657.23	84.1849	5,657.23	84.2206	5,657.23	83.3832	5,657.23	82.8646	5,657.23	82.1795	5,657.23	82.8483	5,657.23	79.2431	5,657.23	80.9089	5,657.23	77.4294	5,657.23	76.3138	5,657.23	75.33	5,657.23	73.1605	5,657.23	71.9994	5,657.23	72.8725	5,657.23	70.1996	5,657.23	71.302	5,657.23	66.5239	5,657.23	68.3537	5,657.23	64.536	5,657.23	60.9681	5,657.23	62.9456	5,657.23	55.4217	5,657.23	62.7338	5,657.23	53.8776	5,657.23	61.439	5,657.23	58.6056	5,657.23	61.3214	5,657.23	50.8913	5,657.23	60	5,657.23	60.7296	5,657.23	58.9408	5,657.23	49.5459	5,657.23	51.0912	5,657.23	58.938	5,657.23	56.8333
5,856.45	85.0823	5,856.45	84.0487	5,856.45	84.3622	5,856.45	83.7793	5,856.45	83.4987	5,856.45	82.2252	5,856.45	82.6877	5,856.45	79.8549	5,856.45	81.1884	5,856.45	77.0519	5,856.45	75.9552	5,856.45	74.4305	5,856.45	72.353	5,856.45	71.543	5,856.45	74.0107	5,856.45	67.8538	5,856.45	72.2407	5,856.45	66.815	5,856.45	67.2987	5,856.45	64.1125	5,856.45	58.8589	5,856.45	63.0325	5,856.45	56.9904	5,856.45	61.1993	5,856.45	54.5845	5,856.45	62.6019	5,856.45	51.5259	5,856.45	58.6629	5,856.45	53.0027	5,856.45	61.6127	5,856.45	59.228	5,856.45	60.4629	5,856.45	56.1811	5,856.45	52.7984	5,856.45	57.135	5,856.45	55.4452
6,062.99	85.2999	6,062.99	84.1632	6,062.99	84.7825	6,062.99	84.0436	6,062.99	83.761	6,062.99	81.3448	6,062.99	82.142	6,062.99	79.9098	6,062.99	81.0029	6,062.99	77.0752	6,062.99	76.0973	6,062.99	73.7909	6,062.99	72.3337	6,062.99	71.2218	6,062.99	74.429	6,062.99	67.3841	6,062.99	73.06	6,062.99	63.5395	6,062.99	68.3173	6,062.99	63.9463	6,062.99	59.0177	6,062.99	62.8515	6,062.99	58.1506	6,062.99	61.3445	6,062.99	50.2405	6,062.99	60.4485	6,062.99	55.0567	6,062.99	59.2883	6,062.99	53.4555	6,062.99	60.6808	6,062.99	60.0119	6,062.99	60.3389	6,062.99	54.4542	6,062.99	56.6712	6,062.99	59.0867	6,062.99	51.2531
6,276.86	85.7201	6,276.86	84.5614	6,276.86	84.3066	6,276.86	83.9197	6,276.86	83.9325	6,276.86	81.7486	6,276.86	81.0157	6,276.86	80.0986	6,276.86	80.0759	6,276.86	76.9849	6,276.86	75.8665	6,276.86	73.7159	6,276.86	70.6813	6,276.86	69.4098	6,276.86	75.2978	6,276.86	68.7133	6,276.86	72.4177	6,276.86	64.484	6,276.86	68.1007	6,276.86	64.6057	6,276.86	56.5239	6,276.86	62.9185	6,276.86	49.885	6,276.86	62.2848	6,276.86	53.3283	6,276.86	60.8456	6,276.86	56.9628	6,276.86	59.2238	6,276.86	55.0032	6,276.86	60.8905	6,276.86	51.854	6,276.86	59.4449	6,276.86	51.3072	6,276.86	57.8217	6,276.86	57.4536	6,276.86	52.4317
6,498.05	85.2612	6,498.05	84.3677	6,498.05	84.1624	6,498.05	83.4999	6,498.05	83.9822	6,498.05	81.7124	6,498.05	80.0631	6,498.05	79.4866	6,498.05	79.0725	6,498.05	76.8084	6,498.05	75.1255	6,498.05	73.0389	6,498.05	71.0325	6,498.05	69.4509	6,498.05	74.566	6,498.05	67.6848	6,498.05	69.7974	6,498.05	64.6049	6,498.05	67.8656	6,498.05	63.6939	6,498.05	57.4301	6,498.05	62.4282	6,498.05	52.2213	6,498.05	60.9988	6,498.05	57.8396	6,498.05	60.7364	6,498.05	53.588	6,498.05	60.832	6,498.05	43.1306	6,498.05	60.1218	6,498.05	54.9279	6,498.05	61.3328	6,498.05	40.5709	6,498.05	60.3891	6,498.05	54.3102	6,498.05	48.3193
6,726.56	85.1021	6,726.56	84.4657	6,726.56	84.4576	6,726.56	83.2936	6,726.56	83.2264	6,726.56	82.1961	6,726.56	80.588	6,726.56	79.517	6,726.56	78.0672	6,726.56	75.9424	6,726.56	74.2961	6,726.56	73.6928	6,726.56	71.7938	6,726.56	70.2386	6,726.56	72.1067	6,726.56	67.9817	6,726.56	66.3424	6,726.56	63.6187	6,726.56	65.4515	6,726.56	63.429	6,726.56	55.4456	6,726.56	61.2244	6,726.56	58.5688	6,726.56	61.7903	6,726.56	50.6049	6,726.56	60.2372	6,726.56	51.854	6,726.56	61.0239	6,726.56	53.8772	6,726.56	60.7404	6,726.56	54.9975	6,726.56	63.2069	6,726.56	52.4142	6,726.56	57.9507	6,726.56	54.3454	6,726.56	50.5386
6,963.87	85.1949	6,963.87	84.4686	6,963.87	84.0731	6,963.87	83.018	6,963.87	83.1537	6,963.87	82.0967	6,963.87	81.2601	6,963.87	79.0209	6,963.87	78.5828	6,963.87	75.4244	6,963.87	74.8625	6,963.87	73.7201	6,963.87	71.0976	6,963.87	69.7903	6,963.87	68.4963	6,963.87	67.3398	6,963.87	67.5165	6,963.87	64.982	6,963.87	66.8637	6,963.87	64.009	6,963.87	52.2672	6,963.87	60.4364	6,963.87	55.2063	6,963.87	61.169	6,963.87	29.6881	6,963.87	59.4942	6,963.87	27.2941	6,963.87	60.2604	6,963.87	50.5945	6,963.87	59.7804	6,963.87	50.489	6,963.87	63.3236	6,963.87	44.5612	6,963.87	58.7318	6,963.87	50.8438	6,963.87	50.8973
7,209.96	85.4904	7,209.96	84.3291	7,209.96	84.2508	7,209.96	83.1301	7,209.96	82.512	7,209.96	81.9367	7,209.96	80.5353	7,209.96	78.5753	7,209.96	78.5369	7,209.96	75.0265	7,209.96	75.1986	7,209.96	72.5118	7,209.96	71.1578	7,209.96	69.7684	7,209.96	62.7016	7,209.96	65.8787	7,209.96	70.4368	7,209.96	64.7861	7,209.96	66.1266	7,209.96	62.4511	7,209.96	57.9745	7,209.96	60.4221	7,209.96	56.2829	7,209.96	59.974	7,209.96	52.0117	7,209.96	57.3359	7,209.96	51.6702	7,209.96	59.6892	7,209.96	52.4725	7,209.96	59.2429	7,209.96	55.0967	7,209.96	61.9868	7,209.96	47.6871	7,209.96	59.5696	7,209.96	54.7704	7,209.96	44.3219
7,464.84	84.8242	7,464.84	84.223	7,464.84	84.1378	7,464.84	82.9448	7,464.84	82.2478	7,464.84	81.4909	7,464.84	80.0432	7,464.84	78.2361	7,464.84	78.4002	7,464.84	74.4116	7,464.84	76.0524	7,464.84	72.0973	7,464.84	69.2062	7,464.84	69.8471	7,464.84	69.5302	7,464.84	65.114	7,464.84	70.641	7,464.84	63.1983	7,464.84	65.1865	7,464.84	61.3181	7,464.84	62.4706	7,464.84	58.4075	7,464.84	58.8923	7,464.84	58.7541	7,464.84	52.4884	7,464.84	57.2212	7,464.84	44.6604	7,464.84	59.5699	7,464.84	46.464	7,464.84	58.6416	7,464.84	52.5202	7,464.84	61.3963	7,464.84	51.5969	7,464.84	57.5875	7,464.84	51.7975	7,464.84	37.2211
7,727.05	85.2889	7,727.05	84.1079	7,727.05	84.4672	7,727.05	82.9617	7,727.05	82.7286	7,727.05	80.8958	7,727.05	79.4243	7,727.05	77.4444	7,727.05	77.1684	7,727.05	74.197	7,727.05	77.0255	7,727.05	71.9576	7,727.05	65.5696	7,727.05	69.1679	7,727.05	72.556	7,727.05	65.9425	7,727.05	67.3782	7,727.05	62.3389	7,727.05	62.9627	7,727.05	61.389	7,727.05	62.0168	7,727.05	57.3544	7,727.05	61.1927	7,727.05	58.8346	7,727.05	53.122	7,727.05	55.9294	7,727.05	29.9615	7,727.05	58.6485	7,727.05	52.9856	7,727.05	59.1964	7,727.05	53.1719	7,727.05	60.8014	7,727.05	49.8076	7,727.05	58.7089	7,727.05	51.5957	7,727.05	45.3896
7,999.51	85.1956	7,999.51	83.8493	7,999.51	84.0933	7,999.51	82.6519	7,999.51	81.9701	7,999.51	80.3747	7,999.51	79.2462	7,999.51	76.8899	7,999.51	77.0419	7,999.51	74.3367	7,999.51	75.9748	7,999.51	71.4505	7,999.51	70.4622	7,999.51	68.0217	7,999.51	70.1637	7,999.51	66.2188	7,999.51	63.6302	7,999.51	62.1718	7,999.51	62.1426	7,999.51	61.5228	7,999.51	61.5345	7,999.51	58.535	7,999.51	60.8955	7,999.51	56.944	7,999.51	53.5032	7,999.51	56.2661	7,999.51	39.1667	7,999.51	57.8607	7,999.51	54.74	7,999.51	56.6894	7,999.51	51.816	7,999.51	60.5409	7,999.51	48.2876	7,999.51	59.1641	7,999.51	47.8997	7,999.51	41.6133
8,282.23	85.1398	8,282.23	83.5883	8,282.23	84.0155	8,282.23	82.3727	8,282.23	81.893	8,282.23	79.8979	8,282.23	79.1186	8,282.23	76.2861	8,282.23	78.6164	8,282.23	74.4161	8,282.23	74.3608	8,282.23	71.5805	8,282.23	72.6217	8,282.23	67.3743	8,282.23	63.2349	8,282.23	66.1699	8,282.23	67.8099	8,282.23	62.1911	8,282.23	63.538	8,282.23	60.2045	8,282.23	63.3983	8,282.23	59.5661	8,282.23	61.0022	8,282.23	57.692	8,282.23	54.3545	8,282.23	58.0415	8,282.23	46.4231	8,282.23	57.3865	8,282.23	54.6763	8,282.23	54.4375	8,282.23	52.7145	8,282.23	61.2861	8,282.23	50.1905	8,282.23	59.07	8,282.23	47.8251	8,282.23	46.3466
8,573.73	84.6435	8,573.73	83.2883	8,573.73	83.8336	8,573.73	81.9109	8,573.73	81.2747	8,573.73	79.2644	8,573.73	78.3837	8,573.73	76.5468	8,573.73	77.4981	8,573.73	73.8694	8,573.73	73.1123	8,573.73	72.2314	8,573.73	72.2491	8,573.73	67.9417	8,573.73	66.772	8,573.73	66.1625	8,573.73	68.4079	8,573.73	63.1924	8,573.73	63.5802	8,573.73	59.7118	8,573.73	61.8541	8,573.73	59.5695	8,573.73	62.4055	8,573.73	57.6798	8,573.73	56.0977	8,573.73	58.4261	8,573.73	37.1789	8,573.73	57.9079	8,573.73	46.1781	8,573.73	55.6425	8,573.73	54.3389	8,573.73	61.3055	8,573.73	48.6453	8,573.73	58.0347	8,573.73	41.5427	8,573.73	45.7276
8,876.95	84.2467	8,876.95	83.5541	8,876.95	83.6402	8,876.95	81.3118	8,876.95	80.433	8,876.95	78.9514	8,876.95	77.3378	8,876.95	76.7268	8,876.95	74.887	8,876.95	74.3315	8,876.95	74.9739	8,876.95	72.0711	8,876.95	69.9865	8,876.95	69.0543	8,876.95	70.5647	8,876.95	66.2697	8,876.95	66.1312	8,876.95	62.3887	8,876.95	61.7345	8,876.95	61.2346	8,876.95	64.3189	8,876.95	59.4009	8,876.95	64.0108	8,876.95	58.1383	8,876.95	56.3086	8,876.95	56.8156	8,876.95	47.8213	8,876.95	57.982	8,876.95	51.5516	8,876.95	56.1199	8,876.95	52.1104	8,876.95	61.1314	8,876.95	48.6933	8,876.95	58.8092	8,876.95	49.4533	8,876.95	44.2528
9,188.96	83.9186	9,188.96	83.5794	9,188.96	83.3986	9,188.96	80.7135	9,188.96	80.493	9,188.96	78.9455	9,188.96	77.1111	9,188.96	76.6383	9,188.96	75.5356	9,188.96	74.9032	9,188.96	76.6327	9,188.96	72.4267	9,188.96	69.7658	9,188.96	69.312	9,188.96	69.9873	9,188.96	67.3997	9,188.96	64.4887	9,188.96	62.9312	9,188.96	63.7583	9,188.96	61.2324	9,188.96	64.5453	9,188.96	58.8845	9,188.96	65.3052	9,188.96	59.2535	9,188.96	58.4883	9,188.96	56.8957	9,188.96	51.5172	9,188.96	56.939	9,188.96	53.3601	9,188.96	56.3131	9,188.96	53.8565	9,188.96	60.7878	9,188.96	22.5261	9,188.96	58.3785	9,188.96	47.5508	9,188.96	45.2681
9,514.16	83.883	9,514.16	83.175	9,514.16	82.7724	9,514.16	80.7694	9,514.16	80.5765	9,514.16	78.4256	9,514.16	77.5249	9,514.16	77.2009	9,514.16	77.4991	9,514.16	74.8914	9,514.16	76.1387	9,514.16	73.1589	9,514.16	72.2386	9,514.16	70.2047	9,514.16	67.5408	9,514.16	67.7285	9,514.16	65.1931	9,514.16	62.8709	9,514.16	63.9031	9,514.16	59.5896	9,514.16	62.7619	9,514.16	59.6892	9,514.16	65.6924	9,514.16	56.4813	9,514.16	61.3844	9,514.16	58.4372	9,514.16	47.7949	9,514.16	56.0455	9,514.16	49.2111	9,514.16	55.9105	9,514.16	50.7749	9,514.16	59.495	9,514.16	42.9116	9,514.16	59.309	9,514.16	50.5085	9,514.16	40.0767
9,849.61	83.7435	9,849.61	83.4107	9,849.61	82.3664	9,849.61	81.2746	9,849.61	80.809	9,849.61	78.9561	9,849.61	78.6572	9,849.61	77.0958	9,849.61	76.8236	9,849.61	75.2529	9,849.61	74.4412	9,849.61	72.9422	9,849.61	73.0248	9,849.61	69.7467	9,849.61	67.825	9,849.61	65.6165	9,849.61	64.565	9,849.61	60.4077	9,849.61	61.7567	9,849.61	57.9512	9,849.61	61.8185	9,849.61	58.1605	9,849.61	65.1392	9,849.61	55.2678	9,849.61	60.2606	9,849.61	57.3514	9,849.61	45.5033	9,849.61	53.3731	9,849.61	50.687	9,849.61	53.8117	9,849.61	35.3298	9,849.61	59.1399	9,849.61	41.7468	9,849.61	58.0893	9,849.61	49.6821	9,849.61	37.5879
10,196.8	83.9043	10,196.8	83.9052	10,196.8	82.8169	10,196.8	81.6843	10,196.8	81.7124	10,196.8	79.8932	10,196.8	79.0395	10,196.8	76.9491	10,196.8	76.9305	10,196.8	75.0311	10,196.8	74.1183	10,196.8	72.6198	10,196.8	72.1944	10,196.8	67.6669	10,196.8	67.256	10,196.8	63.9127	10,196.8	63.9671	10,196.8	58.6982	10,196.8	62.6905	10,196.8	56.8009	10,196.8	64.1507	10,196.8	54.2301	10,196.8	66.0225	10,196.8	53.0784	10,196.8	61.8535	10,196.8	55.6268	10,196.8	47.2504	10,196.8	51.4279	10,196.8	53.7083	10,196.8	51.0957	10,196.8	41.2271	10,196.8	58.2614	10,196.8	40.8243	10,196.8	56.8097	10,196.8	49.7049	10,196.8	38.7871
10,555.7	84.4673	10,555.7	84.3686	10,555.7	83.608	10,555.7	82.4843	10,555.7	82.4868	10,555.7	80.4486	10,555.7	79.4311	10,555.7	77.4527	10,555.7	75.9271	10,555.7	74.6822	10,555.7	75.2907	10,555.7	71.6952	10,555.7	70.1154	10,555.7	65.8039	10,555.7	67.1554	10,555.7	62.0005	10,555.7	64.266	10,555.7	58.4721	10,555.7	62.0032	10,555.7	54.5047	10,555.7	63.7412	10,555.7	51.6416	10,555.7	66.7566	10,555.7	52.4482	10,555.7	63.3921	10,555.7	53.4685	10,555.7	49.3212	10,555.7	51.95	10,555.7	52.672	10,555.7	50.3844	10,555.7	34.4618	10,555.7	56.6156	10,555.7	41.493	10,555.7	54.8201	10,555.7	47.2708	10,555.7	43.9967
10,927.7	85.1726	10,927.7	84.9215	10,927.7	84.3716	10,927.7	83.1972	10,927.7	83.1995	10,927.7	80.9923	10,927.7	80.1424	10,927.7	77.3941	10,927.7	76.6764	10,927.7	74.7236	10,927.7	75.2551	10,927.7	70.2744	10,927.7	68.5222	10,927.7	64.5402	10,927.7	65.1576	10,927.7	61.3317	10,927.7	60.263	10,927.7	56.9772	10,927.7	54.9803	10,927.7	54.6082	10,927.7	62.6779	10,927.7	50.642	10,927.7	66.5769	10,927.7	51.2896	10,927.7	63.4612	10,927.7	49.5078	10,927.7	50.5481	10,927.7	50.0686	10,927.7	47.9881	10,927.7	50.5427	10,927.7	35.9297	10,927.7	55.287	10,927.7	37.5089	10,927.7	54.0176	10,927.7	48.7247	10,927.7	38.4949
11,313	85.691	11,313	85.5304	11,313	84.9767	11,313	83.5485	11,313	83.5283	11,313	81.1468	11,313	80.4455	11,313	77.1626	11,313	77.9891	11,313	73.5451	11,313	73.8771	11,313	68.9523	11,313	67.8746	11,313	62.6314	11,313	62.8895	11,313	58.5415	11,313	59.4943	11,313	55.9806	11,313	56.9144	11,313	51.271	11,313	61.8937	11,313	50.1503	11,313	66.552	11,313	49.2934	11,313	64.109	11,313	50.2945	11,313	36.3157	11,313	46.7344	11,313	37.893	11,313	48.1904	11,313	38.9028	11,313	52.4729	11,313	42.0749	11,313	52.4503	11,313	45.9915	11,313	42.6994
11,712.9	86.3592	11,712.9	85.953	11,712.9	85.5159	11,712.9	83.8364	11,712.9	83.7515	11,712.9	80.599	11,712.9	80.1882	11,712.9	76.5183	11,712.9	76.9006	11,712.9	71.6247	11,712.9	72.337	11,712.9	66.701	11,712.9	66.4357	11,712.9	60.87	11,712.9	57.7994	11,712.9	56.6507	11,712.9	60.7578	11,712.9	52.8227	11,712.9	56.8685	11,712.9	48.8549	11,712.9	61.711	11,712.9	48.3194	11,712.9	65.983	11,712.9	47.6705	11,712.9	63.2118	11,712.9	48.7093	11,712.9	42.317	11,712.9	47.1833	11,712.9	40.2095	11,712.9	43.4281	11,712.9	41.8236	11,712.9	49.4585	11,712.9	39.1444	11,712.9	50.4884	11,712.9	46.3927	11,712.9	44.881
12,126	86.9191	12,126	86.2543	12,126	85.8315	12,126	83.9636	12,126	83.5129	12,126	80.2744	12,126	79.4094	12,126	75.9293	12,126	74.901	12,126	70.7814	12,126	70.136	12,126	64.4626	12,126	64.6803	12,126	59.1557	12,126	60.8378	12,126	55.7733	12,126	56.2076	12,126	52.8113	12,126	48.6315	12,126	48.7923	12,126	60.6224	12,126	47.7279	12,126	65.9268	12,126	48.9273	12,126	63.715	12,126	49.5556	12,126	44.9239	12,126	43.7407	12,126	38.7453	12,126	48.7267	12,126	41.1303	12,126	47.7812	12,126	41.1754	12,126	50.6535	12,126	49.3019	12,126	42.8885
12,553.7	87.1038	12,553.7	86.3463	12,553.7	86.0724	12,553.7	84.0089	12,553.7	83.6692	12,553.7	80.0233	12,553.7	79.2141	12,553.7	75.1886	12,553.7	74.6125	12,553.7	69.8634	12,553.7	69.5744	12,553.7	65.5209	12,553.7	61.7238	12,553.7	59.0513	12,553.7	59.5756	12,553.7	55.5803	12,553.7	56.7168	12,553.7	54.7337	12,553.7	53.5197	12,553.7	50.4458	12,553.7	60.3793	12,553.7	50.2432	12,553.7	66.0594	12,553.7	48.7155	12,553.7	64.8149	12,553.7	50.4133	12,553.7	45.9142	12,553.7	47.6978	12,553.7	25.0333	12,553.7	50.1295	12,553.7	36.3712	12,553.7	48.0547	12,553.7	46.3685	12,553.7	51.1449	12,553.7	48.9738	12,553.7	43.0066
12,996.1	87.0863	12,996.1	86.1634	12,996.1	86.0618	12,996.1	83.6919	12,996.1	83.6758	12,996.1	79.6351	12,996.1	79.5053	12,996.1	74.1424	12,996.1	73.1724	12,996.1	68.5367	12,996.1	70.3333	12,996.1	65.3891	12,996.1	63.7772	12,996.1	61.3476	12,996.1	61.345	12,996.1	56.3245	12,996.1	58.1501	12,996.1	54.7741	12,996.1	55.2141	12,996.1	50.6438	12,996.1	59.4619	12,996.1	52.7721	12,996.1	66.0552	12,996.1	47.6683	12,996.1	64.6641	12,996.1	52.2658	12,996.1	41.1574	12,996.1	46.7297	12,996.1	35.9299	12,996.1	49.6729	12,996.1	42.1738	12,996.1	49.9887	12,996.1	47.115	12,996.1	50.8725	12,996.1	45.9026	12,996.1	41.4085
13,454.6	86.6586	13,454.6	85.7372	13,454.6	85.694	13,454.6	83.0256	13,454.6	83.3239	13,454.6	79.0957	13,454.6	79.3353	13,454.6	73.0664	13,454.6	73.1063	13,454.6	67.077	13,454.6	68.617	13,454.6	63.8652	13,454.6	65.6544	13,454.6	61.6083	13,454.6	63.4275	13,454.6	58.3625	13,454.6	58.4715	13,454.6	55.0092	13,454.6	57.2669	13,454.6	50.8762	13,454.6	57.6206	13,454.6	50.5008	13,454.6	64.8588	13,454.6	49.6619	13,454.6	63.1368	13,454.6	49.5279	13,454.6	43.5927	13,454.6	47.9452	13,454.6	41.5255	13,454.6	52.2244	13,454.6	41.343	13,454.6	49.415	13,454.6	40.4705	13,454.6	49.2247	13,454.6	44.9087	13,454.6	37.9742
13,929.2	86.3676	13,929.2	85.381	13,929.2	85.3722	13,929.2	82.5202	13,929.2	82.8955	13,929.2	78.4205	13,929.2	78.692	13,929.2	71.7788	13,929.2	72.9246	13,929.2	67.158	13,929.2	67.5752	13,929.2	63.2677	13,929.2	64.4558	13,929.2	62.8195	13,929.2	64.6827	13,929.2	59.2986	13,929.2	57.1423	13,929.2	54.9238	13,929.2	54.4026	13,929.2	49.5615	13,929.2	53.8381	13,929.2	49.515	13,929.2	63.0933	13,929.2	48.8356	13,929.2	61.8165	13,929.2	46.6824	13,929.2	43.1653	13,929.2	47.4906	13,929.2	45.153	13,929.2	51.6079	13,929.2	40.1345	13,929.2	46.3639	13,929.2	37.4151	13,929.2	46.8574	13,929.2	43.5846	13,929.2	39.1561
14,419.9	86.2616	14,419.9	85.2119	14,419.9	85.1323	14,419.9	82.0663	14,419.9	82.1614	14,419.9	77.7612	14,419.9	77.3637	14,419.9	70.5648	14,419.9	70.51	14,419.9	65.6679	14,419.9	68.0721	14,419.9	62.7132	14,419.9	62.0777	14,419.9	62.2423	14,419.9	62.8477	14,419.9	56.38	14,419.9	53.8988	14,419.9	52.5478	14,419.9	55.3228	14,419.9	43.8771	14,419.9	44.8564	14,419.9	46.2981	14,419.9	60.2094	14,419.9	45.3254	14,419.9	60.4691	14,419.9	46.4625	14,419.9	46.8159	14,419.9	46.3	14,419.9	44.5374	14,419.9	48.4815	14,419.9	36.0521	14,419.9	40.2316	14,419.9	31.61	14,419.9	44.2412	14,419.9	44.019	14,419.9	41.9859
14,928.2	86.114	14,928.2	84.9276	14,928.2	84.934	14,928.2	81.3035	14,928.2	81.5013	14,928.2	76.5218	14,928.2	75.7519	14,928.2	69.2977	14,928.2	69.672	14,928.2	64.4091	14,928.2	67.7065	14,928.2	64.1864	14,928.2	67.328	14,928.2	59.7143	14,928.2	60.5673	14,928.2	53.2337	14,928.2	54.9129	14,928.2	52.0463	14,928.2	54.6492	14,928.2	40.4955	14,928.2	39.8783	14,928.2	45.6594	14,928.2	57.4688	14,928.2	42.0012	14,928.2	58.7892	14,928.2	46.8433	14,928.2	47.1191	14,928.2	47.8893	14,928.2	41.4917	14,928.2	47.0575	14,928.2	38.2503	14,928.2	40.9688	14,928.2	40.6935	14,928.2	43.2494	14,928.2	44.0008	14,928.2	40.8347
15,455.6	85.5884	15,455.6	84.4562	15,455.6	84.522	15,455.6	80.9633	15,455.6	81.2059	15,455.6	76.0948	15,455.6	75.8566	15,455.6	69.1321	15,455.6	70.8562	15,455.6	66.5747	15,455.6	69.7416	15,455.6	65.3192	15,455.6	67.5371	15,455.6	59.7778	15,455.6	63.2736	15,455.6	54.6245	15,455.6	49.7623	15,455.6	54.2961	15,455.6	53.5502	15,455.6	47.2381	15,455.6	48.7767	15,455.6	42.3078	15,455.6	55.6031	15,455.6	47.1348	15,455.6	58.2492	15,455.6	46.9377	15,455.6	43.6791	15,455.6	48.3214	15,455.6	44.4347	15,455.6	46.5896	15,455.6	28.088	15,455.6	42.5294	15,455.6	41.7312	15,455.6	45.0073	15,455.6	36.8111	15,455.6	39.5576
16,000.5	84.9958	16,000.5	83.7063	16,000.5	83.6877	16,000.5	80.4122	16,000.5	80.6598	16,000.5	75.1149	16,000.5	76.0723	16,000.5	68.4136	16,000.5	70.1838	16,000.5	67.0908	16,000.5	68.3341	16,000.5	63.8117	16,000.5	65.5943	16,000.5	59.79	16,000.5	59.6929	16,000.5	54.4524	16,000.5	52.7366	16,000.5	53.0786	16,000.5	52.6801	16,000.5	43.7693	16,000.5	51.2297	16,000.5	45.0505	16,000.5	53.2801	16,000.5	43.7906	16,000.5	56.8832	16,000.5	47.2336	16,000.5	46.3714	16,000.5	44.686	16,000.5	41.383	16,000.5	43.4551	16,000.5	38.3361	16,000.5	41.9605	16,000.5	43.0028	16,000.5	44.055	16,000.5	40.5919	16,000.5	43.4169
16,564.5	84.3048	16,564.5	82.7352	16,564.5	82.6462	16,564.5	79.5801	16,564.5	79.4573	16,564.5	74.6049	16,564.5	74.9185	16,564.5	68.1226	16,564.5	68.5923	16,564.5	66.7619	16,564.5	67.4974	16,564.5	63.0574	16,564.5	66.433	16,564.5	61.1354	16,564.5	59.2253	16,564.5	53.4801	16,564.5	50.9876	16,564.5	50.9188	16,564.5	50.5319	16,564.5	44.9174	16,564.5	53.6912	16,564.5	41.3396	16,564.5	54.0654	16,564.5	44.921	16,564.5	55.8953	16,564.5	45.5563	16,564.5	42.3252	16,564.5	42.9401	16,564.5	42.8873	16,564.5	43.9184	16,564.5	31.1849	16,564.5	39.094	16,564.5	45.2312	16,564.5	46.5085	16,564.5	41.3804	16,564.5	42.8428
17,148.9	83.2532	17,148.9	81.2897	17,148.9	81.3973	17,148.9	78.3898	17,148.9	78.001	17,148.9	73.8181	17,148.9	73.8182	17,148.9	67.9081	17,148.9	69.5484	17,148.9	66.0307	17,148.9	68.3683	17,148.9	62.3816	17,148.9	65.1392	17,148.9	60.6882	17,148.9	59.4893	17,148.9	53.2658	17,148.9	53.0822	17,148.9	49.0745	17,148.9	48.6654	17,148.9	43.6319	17,148.9	53.7014	17,148.9	39.6458	17,148.9	53.2547	17,148.9	45.2944	17,148.9	54.9042	17,148.9	42.9277	17,148.9	41.2785	17,148.9	42.1496	17,148.9	38.1552	17,148.9	43.2998	17,148.9	29.6013	17,148.9	35.3795	17,148.9	45.4632	17,148.9	44.8957	17,148.9	40.8489	17,148.9	45.8762
17,752.4	81.6543	17,752.4	80.6148	17,752.4	80.0623	17,752.4	79.5536	17,752.4	78.3974	17,752.4	76.5937	17,752.4	75.0572	17,752.4	71.6554	17,752.4	71.5398	17,752.4	68.6118	17,752.4	67.2744	17,752.4	64.2574	17,752.4	64.4589	17,752.4	60.6674	17,752.4	57.0675	17,752.4	54.9551	17,752.4	53.191	17,752.4	51.098	17,752.4	48.035	17,752.4	47.5532	17,752.4	51.9926	17,752.4	43.5405	17,752.4	55.3029	17,752.4	45.3201	17,752.4	54.9497	17,752.4	45.5298	17,752.4	41.6544	17,752.4	45.194	17,752.4	43.4482	17,752.4	45.8187	17,752.4	25.9337	17,752.4	42.4184	17,752.4	43.518	17,752.4	46.6214	17,752.4	36.5658	17,752.4	45.1222
18,379.4	81.1825	18,379.4	80.7773	18,379.4	79.8477	18,379.4	79.3997	18,379.4	78.1396	18,379.4	75.5136	18,379.4	73.8991	18,379.4	69.4879	18,379.4	68.9776	18,379.4	64.4398	18,379.4	64.8576	18,379.4	59.1375	18,379.4	59.0662	18,379.4	55.643	18,379.4	55.7633	18,379.4	52.4383	18,379.4	52.8198	18,379.4	47.3926	18,379.4	40.0631	18,379.4	40.2349	18,379.4	51.5745	18,379.4	35.5906	18,379.4	56.7874	18,379.4	41.9683	18,379.4	55.4197	18,379.4	39.259	18,379.4	43.4595	18,379.4	42.1535	18,379.4	43.1877	18,379.4	39.2789	18,379.4	34.2604	18,379.4	37.3979	18,379.4	40.6455	18,379.4	45.2126	18,379.4	32.7668	18,379.4	39.1699
19,026.9	80.3773	19,026.9	80.0109	19,026.9	79.0839	19,026.9	77.7102	19,026.9	76.6754	19,026.9	72.0138	19,026.9	70.3842	19,026.9	66.0288	19,026.9	65.8634	19,026.9	62.148	19,026.9	60.9519	19,026.9	58.9026	19,026.9	57.3025	19,026.9	57.5697	19,026.9	54.3815	19,026.9	51.8605	19,026.9	53.3741	19,026.9	45.9452	19,026.9	38.0094	19,026.9	39.389	19,026.9	47.6624	19,026.9	31.8402	19,026.9	56.7001	19,026.9	42.8166	19,026.9	55.2975	19,026.9	40.7281	19,026.9	41.8373	19,026.9	41.2188	19,026.9	38.8729	19,026.9	38.2333	19,026.9	28.2435	19,026.9	37.3147	19,026.9	36.4018	19,026.9	45.2715	19,026.9	33.6337	19,026.9	41.0591
19,697.8	79.035	19,697.8	78.9152	19,697.8	77.6259	19,697.8	76.1244	19,697.8	74.794	19,697.8	69.2529	19,697.8	68.3586	19,697.8	62.3547	19,697.8	62.6167	19,697.8	61.3181	19,697.8	62.8141	19,697.8	59.0449	19,697.8	54.8093	19,697.8	57.2712	19,697.8	55.3654	19,697.8	50.8592	19,697.8	53.3727	19,697.8	45.2758	19,697.8	34.3486	19,697.8	40.3846	19,697.8	43.9198	19,697.8	19.4753	19,697.8	55.6031	19,697.8	42.0057	19,697.8	53.5478	19,697.8	37.7701	19,697.8	38.7729	19,697.8	41.414	19,697.8	35.8916	19,697.8	38.3697	19,697.8	35.9981	19,697.8	36.3097	19,697.8	39.21	19,697.8	45.763	19,697.8	41.6326	19,697.8	34.3683
19,999.5	78.1672	19,999.5	78.1936	19,999.5	76.7206	19,999.5	75.2461	19,999.5	74.2301	19,999.5	67.8569	19,999.5	67.4685	19,999.5	60.1354	19,999.5	62.1894	19,999.5	61.0622	19,999.5	62.3991	19,999.5	58.1337	19,999.5	58.603	19,999.5	57.1102	19,999.5	54.4242	19,999.5	52.0084	19,999.5	54.9415	19,999.5	43.5108	19,999.5	31.7578	19,999.5	43.7132	19,999.5	42.9916	19,999.5	41.5394	19,999.5	54.7965	19,999.5	44.2895	19,999.5	50.5982	19,999.5	40.372	19,999.5	44.2199	19,999.5	37.7537	19,999.5	41.2112	19,999.5	42.7528	19,999.5	34.7921	19,999.5	48.0569	19,999.5	46.7282	19,999.5	43.8831	19,999.5	42.1416	19,999.5	43.1713
