"SPL Horizontal"
"On-Axis"		"10°"		"-10°"		"20°"		"-20°"		"30°"		"-30°"		"40°"		"-40°"		"50°"		"-50°"		"60°"		"-60°"		"70°"		"-70°"		"80°"		"-80°"		"90°"		"-90°"		"100°"		"-100°"		"110°"		"-110°"		"120°"		"-120°"		"130°"		"-130°"		"140°"		"-140°"		"150°"		"-150°"		"160°"		"-160°"		"170°"		"-170°"		"180°"
"Frequency / Hz"	"Sound Pressure Level / dB (re 20 µPa/V)  [2.83  V @ 1. m]"	"Frequency / Hz"	"Sound Pressure Level / dB (re 20 µPa/V)  [2.83  V @ 1. m]"	"Frequency / Hz"	"Sound Pressure Level / dB (re 20 µPa/V)  [2.83  V @ 1. m]"	"Frequency / Hz"	"Sound Pressure Level / dB (re 20 µPa/V)  [2.83  V @ 1. m]"	"Frequency / Hz"	"Sound Pressure Level / dB (re 20 µPa/V)  [2.83  V @ 1. m]"	"Frequency / Hz"	"Sound Pressure Level / dB (re 20 µPa/V)  [2.83  V @ 1. m]"	"Frequency / Hz"	"Sound Pressure Level / dB (re 20 µPa/V)  [2.83  V @ 1. m]"	"Frequency / Hz"	"Sound Pressure Level / dB (re 20 µPa/V)  [2.83  V @ 1. m]"	"Frequency / Hz"	"Sound Pressure Level / dB (re 20 µPa/V)  [2.83  V @ 1. m]"	"Frequency / Hz"	"Sound Pressure Level / dB (re 20 µPa/V)  [2.83  V @ 1. m]"	"Frequency / Hz"	"Sound Pressure Level / dB (re 20 µPa/V)  [2.83  V @ 1. m]"	"Frequency / Hz"	"Sound Pressure Level / dB (re 20 µPa/V)  [2.83  V @ 1. m]"	"Frequency / Hz"	"Sound Pressure Level / dB (re 20 µPa/V)  [2.83  V @ 1. m]"	"Frequency / Hz"	"Sound Pressure Level / dB (re 20 µPa/V)  [2.83  V @ 1. m]"	"Frequency / Hz"	"Sound Pressure Level / dB (re 20 µPa/V)  [2.83  V @ 1. m]"	"Frequency / Hz"	"Sound Pressure Level / dB (re 20 µPa/V)  [2.83  V @ 1. m]"	"Frequency / Hz"	"Sound Pressure Level / dB (re 20 µPa/V)  [2.83  V @ 1. m]"	"Frequency / Hz"	"Sound Pressure Level / dB (re 20 µPa/V)  [2.83  V @ 1. m]"	"Frequency / Hz"	"Sound Pressure Level / dB (re 20 µPa/V)  [2.83  V @ 1. m]"	"Frequency / Hz"	"Sound Pressure Level / dB (re 20 µPa/V)  [2.83  V @ 1. m]"	"Frequency / Hz"	"Sound Pressure Level / dB (re 20 µPa/V)  [2.83  V @ 1. m]"	"Frequency / Hz"	"Sound Pressure Level / dB (re 20 µPa/V)  [2.83  V @ 1. m]"	"Frequency / Hz"	"Sound Pressure Level / dB (re 20 µPa/V)  [2.83  V @ 1. m]"	"Frequency / Hz"	"Sound Pressure Level / dB (re 20 µPa/V)  [2.83  V @ 1. m]"	"Frequency / Hz"	"Sound Pressure Level / dB (re 20 µPa/V)  [2.83  V @ 1. m]"	"Frequency / Hz"	"Sound Pressure Level / dB (re 20 µPa/V)  [2.83  V @ 1. m]"	"Frequency / Hz"	"Sound Pressure Level / dB (re 20 µPa/V)  [2.83  V @ 1. m]"	"Frequency / Hz"	"Sound Pressure Level / dB (re 20 µPa/V)  [2.83  V @ 1. m]"	"Frequency / Hz"	"Sound Pressure Level / dB (re 20 µPa/V)  [2.83  V @ 1. m]"	"Frequency / Hz"	"Sound Pressure Level / dB (re 20 µPa/V)  [2.83  V @ 1. m]"	"Frequency / Hz"	"Sound Pressure Level / dB (re 20 µPa/V)  [2.83  V @ 1. m]"	"Frequency / Hz"	"Sound Pressure Level / dB (re 20 µPa/V)  [2.83  V @ 1. m]"	"Frequency / Hz"	"Sound Pressure Level / dB (re 20 µPa/V)  [2.83  V @ 1. m]"	"Frequency / Hz"	"Sound Pressure Level / dB (re 20 µPa/V)  [2.83  V @ 1. m]"	"Frequency / Hz"	"Sound Pressure Level / dB (re 20 µPa/V)  [2.83  V @ 1. m]"	"Frequency / Hz"	"Sound Pressure Level / dB (re 20 µPa/V)  [2.83  V @ 1. m]"
20.5078	69.3377	20.5078	69.3514	20.5078	69.2948	20.5078	69.336	20.5078	69.2232	20.5078	69.2917	20.5078	69.1239	20.5078	69.2192	20.5078	68.9987	20.5078	69.1198	20.5078	68.8506	20.5078	68.9959	20.5078	68.6841	20.5078	68.8508	20.5078	68.5051	20.5078	68.6894	20.5078	68.3211	20.5078	68.518	20.5078	68.1404	20.5078	68.3446	20.5078	67.9712	20.5078	68.1774	20.5078	67.8212	20.5078	68.0242	20.5078	67.696	20.5078	67.8908	20.5078	67.5993	20.5078	67.7795	20.5078	67.5323	20.5078	67.6895	20.5078	67.4941	20.5078	67.6179	20.5078	67.4818	20.5078	67.5615	20.5078	67.4914	20.5078	67.519
21.9727	60.2217	21.9727	60.3032	21.9727	60.0109	21.9727	60.2582	21.9727	59.6719	21.9727	60.094	21.9727	59.2132	21.9727	59.8243	21.9727	58.6574	21.9727	59.4746	21.9727	58.0543	21.9727	59.0893	21.9727	57.4979	21.9727	58.7398	21.9727	57.132	21.9727	58.5232	21.9727	57.1104	21.9727	58.54	21.9727	57.5037	21.9727	58.8458	21.9727	58.2412	21.9727	59.4142	21.9727	59.1667	21.9727	60.1502	21.9727	60.1306	21.9727	60.939	21.9727	61.0312	21.9727	61.6839	21.9727	61.8094	21.9727	62.318	21.9727	62.4326	21.9727	62.7996	21.9727	62.8823	21.9727	63.105	21.9727	63.1475	21.9727	63.2223
23.4375	67.4882	23.4375	67.4511	23.4375	67.4472	23.4375	67.3353	23.4375	67.3285	23.4375	67.1394	23.4375	67.1321	23.4375	66.862	23.4375	66.8577	23.4375	66.5014	23.4375	66.5057	23.4375	66.0561	23.4375	66.0768	23.4375	65.5252	23.4375	65.5733	23.4375	64.9088	23.4375	64.9998	23.4375	64.2095	23.4375	64.3637	23.4375	63.4347	23.4375	63.6766	23.4375	62.6003	23.4375	62.9556	23.4375	61.7368	23.4375	62.2239	23.4375	60.8946	23.4375	61.5105	23.4375	60.1438	23.4375	60.8465	23.4375	59.5607	23.4375	60.2603	23.4375	59.2008	23.4375	59.7723	23.4375	59.075	23.4375	59.3975	23.4375	59.1544
24.9023	67.6101	24.9023	67.5829	24.9023	67.5513	24.9023	67.4694	24.9023	67.4057	24.9023	67.2686	24.9023	67.1715	24.9023	66.9779	24.9023	66.8462	24.9023	66.5946	24.9023	66.427	24.9023	66.1151	24.9023	65.9113	24.9023	65.5363	24.9023	65.2972	24.9023	64.8563	24.9023	64.5847	24.9023	64.0757	24.9023	63.7769	24.9023	63.2002	24.9023	62.8826	24.9023	62.2445	24.9023	61.9202	24.9023	61.2377	24.9023	60.923	24.9023	60.2296	24.9023	59.9441	24.9023	59.2909	24.9023	59.0542	24.9023	58.5014	24.9023	58.3273	24.9023	57.9228	24.9023	57.8138	24.9023	57.5758	24.9023	57.525	24.9023	57.4477
26.3672	63.4606	26.3672	63.4026	26.3672	63.3536	26.3672	63.177	26.3672	63.0786	26.3672	62.7752	26.3672	62.6271	26.3672	62.1823	26.3672	61.9848	26.3672	61.3758	26.3672	61.1312	26.3672	60.3249	26.3672	60.0402	26.3672	58.991	26.3672	58.6839	26.3672	57.338	26.3672	57.0513	26.3672	55.3848	26.3672	55.2164	26.3672	53.4046	26.3672	53.5324	26.3672	52.2953	26.3672	52.8066	26.3672	52.921	26.3672	53.5199	26.3672	54.5756	26.3672	55.0067	26.3672	56.2529	26.3672	56.5105	26.3672	57.5908	26.3672	57.7325	26.3672	58.5316	26.3672	58.6037	26.3672	59.0886	26.3672	59.1184	26.3672	59.2807
27.832	68.5381	27.832	68.5243	27.832	68.4732	27.832	68.4321	27.832	68.3307	27.832	68.2636	27.832	68.1142	27.832	68.023	27.832	67.83	27.832	67.7179	27.832	67.4895	27.832	67.3607	27.832	67.1108	27.832	66.9704	27.832	66.7205	27.832	66.5737	27.832	66.3541	27.832	66.2058	27.832	66.0532	27.832	65.9069	27.832	65.8571	27.832	65.715	27.832	65.7904	27.832	65.6545	27.832	65.8523	27.832	65.7255	27.832	66.0143	27.832	65.9009	27.832	66.2288	27.832	66.134	27.832	66.4425	27.832	66.3711	27.832	66.6082	27.832	66.5639	27.832	66.6921	27.832	66.6771
29.2969	69.318	29.2969	69.3005	29.2969	69.2728	29.2969	69.2203	29.2969	69.1671	29.2969	69.0799	29.2969	69.0061	29.2969	68.8849	29.2969	68.7984	29.2969	68.6444	29.2969	68.5571	29.2969	68.373	29.2969	68.3006	29.2969	68.0904	29.2969	68.0525	29.2969	67.8224	29.2969	67.839	29.2969	67.5974	29.2969	67.6852	29.2969	67.4429	29.2969	67.609	29.2969	67.3778	29.2969	67.6154	29.2969	67.4071	29.2969	67.6953	29.2969	67.5188	29.2969	67.8269	29.2969	67.687	29.2969	67.9811	29.2969	67.8781	29.2969	68.1272	29.2969	68.0582	29.2969	68.238	29.2969	68.1989	29.2969	68.2929	29.2969	68.2803
30.7617	70.5175	30.7617	70.4921	30.7617	70.5145	30.7617	70.4388	30.7617	70.4856	30.7617	70.3615	30.7617	70.4367	30.7617	70.2676	30.7617	70.3769	30.7617	70.1677	30.7617	70.3182	30.7617	70.076	30.7617	70.275	30.7617	70.0081	30.7617	70.2615	30.7617	69.9796	30.7617	70.2894	30.7617	70.0022	30.7617	70.3649	30.7617	70.0813	30.7617	70.4869	30.7617	70.2145	30.7617	70.6466	30.7617	70.3919	30.7617	70.8291	30.7617	70.598	30.7617	71.0161	30.7617	70.8146	30.7617	71.1885	30.7617	71.0227	30.7617	71.3284	30.7617	71.2044	30.7617	71.4213	30.7617	71.3444	30.7617	71.4569	30.7617	71.4309
32.2266	75.6256	32.2266	75.621	32.2266	75.6381	32.2266	75.6246	32.2266	75.6592	32.2266	75.6376	32.2266	75.6903	32.2266	75.6621	32.2266	75.7337	32.2266	75.7009	32.2266	75.7919	32.2266	75.7568	32.2266	75.8672	32.2266	75.8322	32.2266	75.9611	32.2266	75.9284	32.2266	76.0737	32.2266	76.0448	32.2266	76.2029	32.2266	76.1783	32.2266	76.3447	32.2266	76.3239	32.2266	76.4928	32.2266	76.475	32.2266	76.6401	32.2266	76.6242	32.2266	76.7787	32.2266	76.7642	32.2266	76.9007	32.2266	76.8878	32.2266	76.9989	32.2266	76.9886	32.2266	77.0673	32.2266	77.0605	32.2266	77.1014	32.2266	77.099
33.6914	77.667	33.6914	77.6656	33.6914	77.6787	33.6914	77.6744	33.6914	77.7011	33.6914	77.694	33.6914	77.7351	33.6914	77.7253	33.6914	77.7818	33.6914	77.7694	33.6914	77.8422	33.6914	77.8277	33.6914	77.9171	33.6914	77.9011	33.6914	78.0067	33.6914	77.9897	33.6914	78.1099	33.6914	78.0926	33.6914	78.2246	33.6914	78.2072	33.6914	78.347	33.6914	78.3296	33.6914	78.4722	33.6914	78.4549	33.6914	78.5943	33.6914	78.5776	33.6914	78.7074	33.6914	78.6919	33.6914	78.8058	33.6914	78.7925	33.6914	78.8842	33.6914	78.874	33.6914	78.9384	33.6914	78.9321	33.6914	78.9653	33.6914	78.9631
35.1562	79.1372	35.1562	79.1304	35.1562	79.1541	35.1562	79.1339	35.1562	79.1814	35.1562	79.1478	35.1562	79.2194	35.1562	79.1726	35.1562	79.2683	35.1562	79.2088	35.1562	79.3285	35.1562	79.2571	35.1562	79.3998	35.1562	79.3177	35.1562	79.4819	35.1562	79.3907	35.1562	79.5734	35.1562	79.4754	35.1562	79.6721	35.1562	79.57	35.1562	79.7749	35.1562	79.6718	35.1562	79.8779	35.1562	79.7774	35.1562	79.9765	35.1562	79.8824	35.1562	80.0661	35.1562	79.9825	35.1562	80.1421	35.1562	80.0727	35.1562	80.2004	35.1562	80.1485	35.1562	80.2377	35.1562	80.2055	35.1562	80.2514	35.1562	80.2406
36.6211	80.3875	36.6211	80.3782	36.6211	80.4059	36.6211	80.3783	36.6211	80.4334	36.6211	80.388	36.6211	80.4699	36.6211	80.4073	36.6211	80.5151	36.6211	80.4365	36.6211	80.5688	36.6211	80.4759	36.6211	80.6304	36.6211	80.5256	36.6211	80.699	36.6211	80.5852	36.6211	80.7734	36.6211	80.654	36.6211	80.8517	36.6211	80.7307	36.6211	80.9316	36.6211	80.813	36.6211	81.0102	36.6211	80.8982	36.6211	81.0844	36.6211	80.9828	36.6211	81.1509	36.6211	81.0632	36.6211	81.2066	36.6211	81.1357	36.6211	81.2486	36.6211	81.1967	36.6211	81.2746	36.6211	81.243	36.6211	81.2828	36.6211	81.2722
38.0859	81.6477	38.0859	81.6383	38.0859	81.6652	38.0859	81.6372	38.0859	81.6908	38.0859	81.6443	38.0859	81.7242	38.0859	81.6596	38.0859	81.765	38.0859	81.6829	38.0859	81.8127	38.0859	81.7141	38.0859	81.8668	38.0859	81.7531	38.0859	81.9262	38.0859	81.7996	38.0859	81.9898	38.0859	81.8533	38.0859	82.056	38.0859	81.9132	38.0859	82.1227	38.0859	81.9783	38.0859	82.1875	38.0859	82.0466	38.0859	82.2477	38.0859	82.1161	38.0859	82.3007	38.0859	82.1838	38.0859	82.3436	38.0859	82.2468	38.0859	82.3742	38.0859	82.3017	38.0859	82.3905	38.0859	82.3456	38.0859	82.3912	38.0859	82.376
39.5508	82.5649	39.5508	82.5627	39.5508	82.5748	39.5508	82.568	39.5508	82.5921	39.5508	82.5807	39.5508	82.6166	39.5508	82.6006	39.5508	82.6479	39.5508	82.6273	39.5508	82.6855	39.5508	82.6604	39.5508	82.7287	39.5508	82.6994	39.5508	82.7769	39.5508	82.7438	39.5508	82.8289	39.5508	82.7932	39.5508	82.8837	39.5508	82.8465	39.5508	82.9397	39.5508	82.9027	39.5508	82.995	39.5508	82.9599	39.5508	83.0477	39.5508	83.0162	39.5508	83.0956	39.5508	83.069	39.5508	83.1365	39.5508	83.1157	39.5508	83.1687	39.5508	83.1539	39.5508	83.1903	39.5508	83.1816	39.5508	83.2001	39.5508	83.1972
41.0156	83.2497	41.0156	83.2501	41.0156	83.2578	41.0156	83.2588	41.0156	83.2741	41.0156	83.2756	41.0156	83.2983	41.0156	83.2999	41.0156	83.3299	41.0156	83.331	41.0156	83.3679	41.0156	83.3684	41.0156	83.4115	41.0156	83.4113	41.0156	83.4593	41.0156	83.4588	41.0156	83.5098	41.0156	83.5102	41.0156	83.5614	41.0156	83.564	41.0156	83.6122	41.0156	83.6184	41.0156	83.6607	41.0156	83.6711	41.0156	83.7051	41.0156	83.7195	41.0156	83.7443	41.0156	83.7612	41.0156	83.7774	41.0156	83.7944	41.0156	83.8036	41.0156	83.8182	41.0156	83.8226	41.0156	83.8324	41.0156	83.8341	41.0156	83.8375
42.4805	83.9624	42.4805	83.9761	42.4805	83.9538	42.4805	83.9947	42.4805	83.9504	42.4805	84.0177	42.4805	83.952	42.4805	84.0446	42.4805	83.9586	42.4805	84.0746	42.4805	83.9696	42.4805	84.1069	42.4805	83.9846	42.4805	84.1407	42.4805	84.003	42.4805	84.1749	42.4805	84.0244	42.4805	84.2085	42.4805	84.048	42.4805	84.24	42.4805	84.0731	42.4805	84.2675	42.4805	84.0989	42.4805	84.2892	42.4805	84.1246	42.4805	84.3034	42.4805	84.1498	42.4805	84.3092	42.4805	84.174	42.4805	84.3066	42.4805	84.1974	42.4805	84.2968	42.4805	84.22	42.4805	84.2815	42.4805	84.2418	42.4805	84.2627
43.9453	84.482	43.9453	84.4972	43.9453	84.4725	43.9453	84.518	43.9453	84.4685	43.9453	84.5439	43.9453	84.4698	43.9453	84.5746	43.9453	84.4761	43.9453	84.6093	43.9453	84.4868	43.9453	84.6472	43.9453	84.5015	43.9453	84.6872	43.9453	84.5197	43.9453	84.7279	43.9453	84.5408	43.9453	84.7678	43.9453	84.5644	43.9453	84.8048	43.9453	84.5901	43.9453	84.8366	43.9453	84.6173	43.9453	84.861	43.9453	84.6455	43.9453	84.876	43.9453	84.6743	43.9453	84.8807	43.9453	84.7032	43.9453	84.8754	43.9453	84.7321	43.9453	84.8614	43.9453	84.7608	43.9453	84.8409	43.9453	84.789	43.9453	84.8162
45.4102	84.9124	45.4102	84.9292	45.4102	84.8999	45.4102	84.9498	45.4102	84.8915	45.4102	84.9741	45.4102	84.8873	45.4102	85.0013	45.4102	84.8869	45.4102	85.0308	45.4102	84.8902	45.4102	85.0619	45.4102	84.8968	45.4102	85.0935	45.4102	84.9067	45.4102	85.1248	45.4102	84.9197	45.4102	85.1544	45.4102	84.9357	45.4102	85.1809	45.4102	84.9545	45.4102	85.2027	45.4102	84.9758	45.4102	85.2182	45.4102	84.9992	45.4102	85.2259	45.4102	85.0242	45.4102	85.2253	45.4102	85.0501	45.4102	85.2165	45.4102	85.0766	45.4102	85.2008	45.4102	85.1033	45.4102	85.1799	45.4102	85.1299	45.4102	85.1557
46.875	85.4043	46.875	85.4123	46.875	85.3984	46.875	85.4225	46.875	85.3944	46.875	85.4345	46.875	85.3922	46.875	85.4482	46.875	85.3913	46.875	85.463	46.875	85.3914	46.875	85.4784	46.875	85.3921	46.875	85.4937	46.875	85.3933	46.875	85.5082	46.875	85.3949	46.875	85.5213	46.875	85.3969	46.875	85.5319	46.875	85.3995	46.875	85.5393	46.875	85.403	46.875	85.5423	46.875	85.4075	46.875	85.5404	46.875	85.4134	46.875	85.5333	46.875	85.4209	46.875	85.5215	46.875	85.4303	46.875	85.5062	46.875	85.4419	46.875	85.4891	46.875	85.4558	46.875	85.4718
48.3398	85.8719	48.3398	85.8781	48.3398	85.8661	48.3398	85.885	48.3398	85.8607	48.3398	85.8924	48.3398	85.8553	48.3398	85.9001	48.3398	85.8496	48.3398	85.9078	48.3398	85.8432	48.3398	85.9151	48.3398	85.836	48.3398	85.9216	48.3398	85.8279	48.3398	85.9268	48.3398	85.8193	48.3398	85.9305	48.3398	85.8105	48.3398	85.9321	48.3398	85.8023	48.3398	85.931	48.3398	85.7953	48.3398	85.9267	48.3398	85.7904	48.3398	85.9186	48.3398	85.7882	48.3398	85.9064	48.3398	85.7893	48.3398	85.8906	48.3398	85.7943	48.3398	85.872	48.3398	85.8034	48.3398	85.8524	48.3398	85.8167	48.3398	85.8334
51.2695	87.1235	51.2695	87.1373	51.2695	87.1111	51.2695	87.1526	51.2695	87.1003	51.2695	87.1689	51.2695	87.091	51.2695	87.1858	51.2695	87.0831	51.2695	87.2029	51.2695	87.0761	51.2695	87.2194	51.2695	87.0699	51.2695	87.2346	51.2695	87.0641	51.2695	87.2476	51.2695	87.0586	51.2695	87.2576	51.2695	87.0533	51.2695	87.2637	51.2695	87.0487	51.2695	87.2649	51.2695	87.0455	51.2695	87.2607	51.2695	87.0444	51.2695	87.2505	51.2695	87.0467	51.2695	87.234	51.2695	87.053	51.2695	87.2119	51.2695	87.0642	51.2695	87.1854	51.2695	87.0807	51.2695	87.1567	51.2695	87.1024	51.2695	87.1283
52.7344	87.388	52.7344	87.4025	52.7344	87.376	52.7344	87.4196	52.7344	87.3664	52.7344	87.4392	52.7344	87.3589	52.7344	87.461	52.7344	87.3532	52.7344	87.4844	52.7344	87.3491	52.7344	87.5089	52.7344	87.346	52.7344	87.5335	52.7344	87.3439	52.7344	87.5571	52.7344	87.3426	52.7344	87.5782	52.7344	87.3424	52.7344	87.5954	52.7344	87.3438	52.7344	87.6071	52.7344	87.3475	52.7344	87.6118	52.7344	87.3542	52.7344	87.6081	52.7344	87.3648	52.7344	87.5957	52.7344	87.3796	52.7344	87.5749	52.7344	87.3991	52.7344	87.5473	52.7344	87.4231	52.7344	87.5157	52.7344	87.4513	52.7344	87.4828
54.1992	87.6664	54.1992	87.6709	54.1992	87.6641	54.1992	87.6781	54.1992	87.6635	54.1992	87.6884	54.1992	87.6638	54.1992	87.7019	54.1992	87.6646	54.1992	87.7185	54.1992	87.6654	54.1992	87.7378	54.1992	87.6657	54.1992	87.7591	54.1992	87.6654	54.1992	87.7814	54.1992	87.6646	54.1992	87.8031	54.1992	87.6636	54.1992	87.8225	54.1992	87.6633	54.1992	87.8373	54.1992	87.6641	54.1992	87.8455	54.1992	87.667	54.1992	87.8454	54.1992	87.6722	54.1992	87.8362	54.1992	87.68	54.1992	87.8189	54.1992	87.6907	54.1992	87.7957	54.1992	87.7048	54.1992	87.7699	54.1992	87.7228	54.1992	87.7448
55.6641	87.9714	55.6641	87.966	55.6641	87.9772	55.6641	87.9614	55.6641	87.9827	55.6641	87.9583	55.6641	87.9873	55.6641	87.9572	55.6641	87.9905	55.6641	87.9583	55.6641	87.9919	55.6641	87.9619	55.6641	87.9911	55.6641	87.9677	55.6641	87.988	55.6641	87.9753	55.6641	87.9829	55.6641	87.9842	55.6641	87.9761	55.6641	87.9933	55.6641	87.9685	55.6641	88.0015	55.6641	87.9611	55.6641	88.0072	55.6641	87.9549	55.6641	88.0095	55.6641	87.9508	55.6641	88.0074	55.6641	87.9492	55.6641	88.0013	55.6641	87.9506	55.6641	87.9921	55.6641	87.9548	55.6641	87.9814	55.6641	87.9617	55.6641	87.9708
58.5938	88.4641	58.5938	88.4493	58.5938	88.4782	58.5938	88.4345	58.5938	88.4912	58.5938	88.4202	58.5938	88.5025	58.5938	88.407	58.5938	88.5115	58.5938	88.3953	58.5938	88.5178	58.5938	88.3855	58.5938	88.5208	58.5938	88.3777	58.5938	88.5204	58.5938	88.3721	58.5938	88.5165	58.5938	88.3687	58.5938	88.5092	58.5938	88.3677	58.5938	88.4994	58.5938	88.3692	58.5938	88.4878	58.5938	88.3731	58.5938	88.4757	58.5938	88.3794	58.5938	88.4642	58.5938	88.3875	58.5938	88.4539	58.5938	88.3966	58.5938	88.445	58.5938	88.406	58.5938	88.4374	58.5938	88.4149	58.5938	88.4303	58.5938	88.423
60.0586	88.6344	60.0586	88.6194	60.0586	88.6477	60.0586	88.6034	60.0586	88.659	60.0586	88.5871	60.0586	88.6677	60.0586	88.5711	60.0586	88.6733	60.0586	88.556	60.0586	88.6757	60.0586	88.5424	60.0586	88.6746	60.0586	88.5309	60.0586	88.67	60.0586	88.5218	60.0586	88.662	60.0586	88.5155	60.0586	88.6511	60.0586	88.5124	60.0586	88.6382	60.0586	88.5124	60.0586	88.6245	60.0586	88.5156	60.0586	88.611	60.0586	88.5213	60.0586	88.5988	60.0586	88.5289	60.0586	88.5884	60.0586	88.5374	60.0586	88.58	60.0586	88.5459	60.0586	88.573	60.0586	88.5536	60.0586	88.5668	60.0586	88.5605
62.9883	89.0604	62.9883	89.0429	62.9883	89.0742	62.9883	89.0224	62.9883	89.0837	62.9883	88.9994	62.9883	89.0886	62.9883	88.9749	62.9883	89.0886	62.9883	88.9497	62.9883	89.0833	62.9883	88.9244	62.9883	89.0728	62.9883	88.9	62.9883	89.0571	62.9883	88.8771	62.9883	89.0365	62.9883	88.8563	62.9883	89.0116	62.9883	88.8381	62.9883	88.9836	62.9883	88.8231	62.9883	88.9536	62.9883	88.8113	62.9883	88.9234	62.9883	88.8028	62.9883	88.8945	62.9883	88.7974	62.9883	88.8683	62.9883	88.7948	62.9883	88.8458	62.9883	88.7948	62.9883	88.8275	62.9883	88.7977	62.9883	88.8136	62.9883	88.8038
64.4531	89.2223	64.4531	89.2014	64.4531	89.2394	64.4531	89.1774	64.4531	89.2521	64.4531	89.1512	64.4531	89.2602	64.4531	89.1236	64.4531	89.2633	64.4531	89.0956	64.4531	89.2613	64.4531	89.0684	64.4531	89.2542	64.4531	89.043	64.4531	89.2421	64.4531	89.0202	64.4531	89.2254	64.4531	89.001	64.4531	89.2046	64.4531	88.986	64.4531	89.1808	64.4531	88.9757	64.4531	89.1552	64.4531	88.9702	64.4531	89.1289	64.4531	88.9691	64.4531	89.1034	64.4531	88.9719	64.4531	89.0796	64.4531	88.9778	64.4531	89.0581	64.4531	88.9861	64.4531	89.0392	64.4531	88.9964	64.4531	89.0228	64.4531	89.0086
67.3828	89.5773	67.3828	89.5493	67.3828	89.5997	67.3828	89.5162	67.3828	89.6158	67.3828	89.4791	67.3828	89.6255	67.3828	89.4392	67.3828	89.6286	67.3828	89.3977	67.3828	89.6252	67.3828	89.3564	67.3828	89.6157	67.3828	89.3167	67.3828	89.6005	67.3828	89.2805	67.3828	89.5803	67.3828	89.2494	67.3828	89.5559	67.3828	89.225	67.3828	89.5285	67.3828	89.2086	67.3828	89.4994	67.3828	89.2011	67.3828	89.4697	67.3828	89.2026	67.3828	89.4405	67.3828	89.2126	67.3828	89.4122	67.3828	89.2295	67.3828	89.3848	67.3828	89.2517	67.3828	89.3578	67.3828	89.277	67.3828	89.3309	67.3828	89.3038
68.8477	89.703	68.8477	89.672	68.8477	89.7275	68.8477	89.6352	68.8477	89.745	68.8477	89.5937	68.8477	89.7552	68.8477	89.5486	68.8477	89.758	68.8477	89.5015	68.8477	89.7537	68.8477	89.4541	68.8477	89.7426	68.8477	89.4083	68.8477	89.7251	68.8477	89.366	68.8477	89.702	68.8477	89.3292	68.8477	89.6742	68.8477	89.2998	68.8477	89.6431	68.8477	89.2795	68.8477	89.6098	68.8477	89.2693	68.8477	89.5759	68.8477	89.2697	68.8477	89.5422	68.8477	89.28	68.8477	89.5095	68.8477	89.2986	68.8477	89.4776	68.8477	89.3236	68.8477	89.4462	68.8477	89.3525	68.8477	89.4148	68.8477	89.3834
71.7773	89.9637	71.7773	89.928	71.7773	89.9915	71.7773	89.8847	71.7773	90.0111	71.7773	89.8347	71.7773	90.0223	71.7773	89.7791	71.7773	90.0255	71.7773	89.7195	71.7773	90.0207	71.7773	89.6577	71.7773	90.0084	71.7773	89.5959	71.7773	89.9888	71.7773	89.5367	71.7773	89.9625	71.7773	89.4828	71.7773	89.9301	71.7773	89.437	71.7773	89.8924	71.7773	89.4018	71.7773	89.8503	71.7773	89.3792	71.7773	89.8049	71.7773	89.3703	71.7773	89.757	71.7773	89.3753	71.7773	89.7072	71.7773	89.3932	71.7773	89.6562	71.7773	89.4223	71.7773	89.6046	71.7773	89.4603	71.7773	89.5537	71.7773	89.5049
74.707	90.4395	74.707	90.4171	74.707	90.4556	74.707	90.3883	74.707	90.4656	74.707	90.3535	74.707	90.4696	74.707	90.3133	74.707	90.4683	74.707	90.2686	74.707	90.4619	74.707	90.2207	74.707	90.4507	74.707	90.1713	74.707	90.4351	74.707	90.1221	74.707	90.4149	74.707	90.0752	74.707	90.3904	74.707	90.0328	74.707	90.3616	74.707	89.997	74.707	90.3288	74.707	89.9698	74.707	90.2925	74.707	89.9529	74.707	90.2531	74.707	89.9474	74.707	90.211	74.707	89.9538	74.707	90.167	74.707	89.9717	74.707	90.1219	74.707	89.9997	74.707	90.0775	74.707	90.0358
77.6367	90.5991	77.6367	90.5827	77.6367	90.6083	77.6367	90.559	77.6367	90.6107	77.6367	90.5281	77.6367	90.6072	77.6367	90.4907	77.6367	90.5984	77.6367	90.4477	77.6367	90.5855	77.6367	90.4005	77.6367	90.5692	77.6367	90.3507	77.6367	90.5502	77.6367	90.3005	77.6367	90.5292	77.6367	90.2523	77.6367	90.5063	77.6367	90.2085	77.6367	90.4818	77.6367	90.1717	77.6367	90.4557	77.6367	90.1443	77.6367	90.4282	77.6367	90.1284	77.6367	90.3989	77.6367	90.1251	77.6367	90.3677	77.6367	90.1345	77.6367	90.334	77.6367	90.1553	77.6367	90.2977	77.6367	90.1853	77.6367	90.2596	77.6367	90.2211
79.1016	90.6565	79.1016	90.6447	79.1016	90.6608	79.1016	90.6251	79.1016	90.6581	79.1016	90.5978	79.1016	90.6492	79.1016	90.5635	79.1016	90.6351	79.1016	90.523	79.1016	90.6169	79.1016	90.4776	79.1016	90.5958	79.1016	90.4288	79.1016	90.5727	79.1016	90.3788	79.1016	90.5484	79.1016	90.3298	79.1016	90.5236	79.1016	90.2843	79.1016	90.4985	79.1016	90.2452	79.1016	90.4734	79.1016	90.2149	79.1016	90.4483	79.1016	90.1959	79.1016	90.423	79.1016	90.1894	79.1016	90.3969	79.1016	90.1958	79.1016	90.369	79.1016	90.2136	79.1016	90.3387	79.1016	90.2403	79.1016	90.306	79.1016	90.2723
82.0312	90.7498	82.0312	90.7476	82.0312	90.7423	82.0312	90.7357	82.0312	90.7259	82.0312	90.7141	82.0312	90.7018	82.0312	90.6835	82.0312	90.6714	82.0312	90.6452	82.0312	90.6365	82.0312	90.6005	82.0312	90.5987	82.0312	90.5514	82.0312	90.56	82.0312	90.5	82.0312	90.5219	82.0312	90.4486	82.0312	90.4859	82.0312	90.3999	82.0312	90.453	82.0312	90.3564	82.0312	90.424	82.0312	90.3205	82.0312	90.3993	82.0312	90.2941	82.0312	90.3789	82.0312	90.2785	82.0312	90.3621	82.0312	90.2734	82.0312	90.3474	82.0312	90.2776	82.0312	90.3333	82.0312	90.2885	82.0312	90.3185	82.0312	90.303
84.9609	90.8428	84.9609	90.8393	84.9609	90.8355	84.9609	90.825	84.9609	90.8177	84.9609	90.8005	84.9609	90.7904	84.9609	90.7667	84.9609	90.7551	84.9609	90.7251	84.9609	90.7136	84.9609	90.6774	84.9609	90.6682	84.9609	90.6257	84.9609	90.621	84.9609	90.5722	84.9609	90.5745	84.9609	90.5193	84.9609	90.5308	84.9609	90.4694	84.9609	90.4917	84.9609	90.4249	84.9609	90.4584	84.9609	90.3878	84.9609	90.4313	84.9609	90.3597	84.9609	90.4102	84.9609	90.3415	84.9609	90.394	84.9609	90.3328	84.9609	90.381	84.9609	90.3324	84.9609	90.3695	84.9609	90.3382	84.9609	90.3584	84.9609	90.3476
87.8906	90.9538	87.8906	90.9489	87.8906	90.9468	87.8906	90.9321	87.8906	90.9281	87.8906	90.904	87.8906	90.8986	87.8906	90.8658	87.8906	90.8595	87.8906	90.8189	87.8906	90.8122	87.8906	90.7651	87.8906	90.7586	87.8906	90.7067	87.8906	90.7009	87.8906	90.646	87.8906	90.6415	87.8906	90.5854	87.8906	90.5829	87.8906	90.5276	87.8906	90.5276	87.8906	90.4749	87.8906	90.478	87.8906	90.4294	87.8906	90.4361	87.8906	90.3928	87.8906	90.4029	87.8906	90.3659	87.8906	90.3783	87.8906	90.3483	87.8906	90.3611	87.8906	90.3391	87.8906	90.3497	87.8906	90.3362	87.8906	90.3422	87.8906	90.3377
90.8203	90.8138	90.8203	90.8086	90.8203	90.8071	90.8203	90.7916	90.8203	90.7893	90.8203	90.7633	90.8203	90.7616	90.8203	90.7251	90.8203	90.7261	90.8203	90.6792	90.8203	90.6851	90.8203	90.628	90.8203	90.6413	90.8203	90.5745	90.8203	90.5972	90.8203	90.5219	90.8203	90.5553	90.8203	90.4732	90.8203	90.5177	90.8203	90.4312	90.8203	90.4858	90.8203	90.3982	90.8203	90.4607	90.8203	90.3753	90.8203	90.4425	90.8203	90.3631	90.8203	90.4305	90.8203	90.3606	90.8203	90.4234	90.8203	90.3658	90.8203	90.419	90.8203	90.3762	90.8203	90.4148	90.8203	90.3885	90.8203	90.4088	90.8203	90.3999
95.2148	90.9462	95.2148	90.9457	95.2148	90.9297	95.2148	90.9281	95.2148	90.8966	95.2148	90.8943	95.2148	90.8484	95.2148	90.8457	95.2148	90.7869	95.2148	90.7841	95.2148	90.7149	95.2148	90.7122	95.2148	90.6359	95.2148	90.6334	95.2148	90.5539	95.2148	90.5514	95.2148	90.4734	95.2148	90.4706	95.2148	90.399	95.2148	90.3954	95.2148	90.335	95.2148	90.33	95.2148	90.2844	95.2148	90.2779	95.2148	90.249	95.2148	90.2411	95.2148	90.2282	95.2148	90.2196	95.2148	90.2195	95.2148	90.2111	95.2148	90.2188	95.2148	90.2117	95.2148	90.2213	95.2148	90.2166	95.2148	90.2229	95.2148	90.2212
98.1445	90.9054	98.1445	90.9146	98.1445	90.8788	98.1445	90.9067	98.1445	90.8353	98.1445	90.8826	98.1445	90.7759	98.1445	90.8436	98.1445	90.7023	98.1445	90.7915	98.1445	90.6171	98.1445	90.7285	98.1445	90.5239	98.1445	90.6572	98.1445	90.4267	98.1445	90.5805	98.1445	90.3303	98.1445	90.5015	98.1445	90.24	98.1445	90.4237	98.1445	90.1608	98.1445	90.3504	98.1445	90.0971	98.1445	90.2847	98.1445	90.0517	98.1445	90.2289	98.1445	90.0254	98.1445	90.1838	98.1445	90.0166	98.1445	90.1486	98.1445	90.0219	98.1445	90.1209	98.1445	90.0365	98.1445	90.0979	98.1445	90.0558	98.1445	90.0766
101.074	90.7526	101.074	90.7464	101.074	90.7396	101.074	90.722	101.074	90.7069	101.074	90.6814	101.074	90.6552	101.074	90.6273	101.074	90.5858	101.074	90.5628	101.074	90.5012	101.074	90.4916	101.074	90.4047	101.074	90.4175	101.074	90.3004	101.074	90.3441	101.074	90.1935	101.074	90.2744	101.074	90.0897	101.074	90.2108	101.074	89.9952	101.074	90.1546	101.074	89.9156	101.074	90.106	101.074	89.8555	101.074	90.064	101.074	89.8174	101.074	90.0269	101.074	89.8014	101.074	89.9924	101.074	89.8051	101.074	89.9583	101.074	89.8242	101.074	89.9234	101.074	89.8535	101.074	89.8878
105.469	91.018	105.469	90.9973	105.469	91.0135	105.469	90.9521	105.469	90.9846	105.469	90.8834	105.469	90.9323	105.469	90.7934	105.469	90.859	105.469	90.6855	105.469	90.7679	105.469	90.5639	105.469	90.663	105.469	90.4341	105.469	90.5494	105.469	90.3026	105.469	90.4329	105.469	90.1769	105.469	90.3198	105.469	90.0642	105.469	90.2163	105.469	89.9711	105.469	90.1273	105.469	89.9022	105.469	90.0562	105.469	89.859	105.469	90.0037	105.469	89.8398	105.469	89.9677	105.469	89.84	105.469	89.9436	105.469	89.8531	105.469	89.926	105.469	89.8722	105.469	89.9099	105.469	89.892
108.398	91.1891	108.398	91.1781	108.398	91.1757	108.398	91.1428	108.398	91.1381	108.398	91.0841	108.398	91.0773	108.398	91.0038	108.398	90.9951	108.398	90.9042	108.398	90.8942	108.398	90.7887	108.398	90.7782	108.398	90.6618	108.398	90.652	108.398	90.529	108.398	90.5214	108.398	90.3968	108.398	90.3931	108.398	90.2722	108.398	90.2742	108.398	90.1619	108.398	90.1711	108.398	90.0713	108.398	90.0885	108.398	90.0037	108.398	90.028	108.398	89.9593	108.398	89.9882	108.398	89.9354	108.398	89.9644	108.398	89.9271	108.398	89.9508	108.398	89.9285	108.398	89.9419	108.398	89.9344
112.793	91.2067	112.793	91.1957	112.793	91.1947	112.793	91.1623	112.793	91.1597	112.793	91.1074	112.793	91.102	112.793	91.0326	112.793	91.0228	112.793	90.9397	112.793	90.9241	112.793	90.8315	112.793	90.809	112.793	90.7114	112.793	90.6816	112.793	90.5841	112.793	90.5477	112.793	90.4554	112.793	90.4142	112.793	90.3316	112.793	90.2885	112.793	90.2197	112.793	90.1781	112.793	90.1253	112.793	90.0889	112.793	90.0524	112.793	90.0238	112.793	90.0015	112.793	89.9821	112.793	89.9705	112.793	89.9595	112.793	89.9545	112.793	89.9497	112.793	89.9481	112.793	89.9467	112.793	89.9464
117.188	91.0644	117.188	91.0592	117.188	91.0468	117.188	91.0319	117.188	91.0065	117.188	90.9839	117.188	90.9441	117.188	90.9169	117.188	90.8608	117.188	90.8333	117.188	90.7589	117.188	90.7361	117.188	90.6415	117.188	90.629	117.188	90.5128	117.188	90.5165	117.188	90.3783	117.188	90.4037	117.188	90.2446	117.188	90.2959	117.188	90.1191	117.188	90.1985	117.188	90.0094	117.188	90.1152	117.188	89.9218	117.188	90.0478	117.188	89.8603	117.188	89.9956	117.188	89.8257	117.188	89.9554	117.188	89.815	117.188	89.9229	117.188	89.8226	117.188	89.8942	117.188	89.8419	117.188	89.867
120.117	91.1748	120.117	91.1534	120.117	91.1707	120.117	91.1079	120.117	91.1405	120.117	91.0405	120.117	91.0845	120.117	90.9542	120.117	91.0039	120.117	90.8524	120.117	90.9014	120.117	90.7395	120.117	90.7805	120.117	90.6203	120.117	90.6466	120.117	90.5003	120.117	90.5062	120.117	90.3855	120.117	90.3672	120.117	90.2818	120.117	90.2378	120.117	90.1944	120.117	90.1261	120.117	90.1265	120.117	90.038	120.117	90.0781	120.117	89.9768	120.117	90.0462	120.117	89.9423	120.117	90.0251	120.117	89.931	120.117	90.0086	120.117	89.9368	120.117	89.9918	120.117	89.9529	120.117	89.9727
124.512	91.2869	124.512	91.2393	124.512	91.3089	124.512	91.1673	124.512	91.305	124.512	91.0729	124.512	91.2753	124.512	90.9594	124.512	91.2208	124.512	90.8309	124.512	91.1432	124.512	90.6928	124.512	91.0452	124.512	90.5516	124.512	90.9306	124.512	90.415	124.512	90.8047	124.512	90.2908	124.512	90.6746	124.512	90.1868	124.512	90.5484	124.512	90.1091	124.512	90.4347	124.512	90.0609	124.512	90.3406	124.512	90.0417	124.512	90.2703	124.512	90.0465	124.512	90.2234	124.512	90.0678	124.512	90.1954	124.512	90.0966	124.512	90.1786	124.512	90.125	124.512	90.1651	124.512	90.1482
128.906	91.2374	128.906	91.2012	128.906	91.247	128.906	91.1374	128.906	91.2315	128.906	91.0461	128.906	91.1931	128.906	90.9283	128.906	91.1342	128.906	90.7864	128.906	91.0578	128.906	90.6248	128.906	90.9672	128.906	90.4499	128.906	90.8663	128.906	90.2707	128.906	90.7596	128.906	90.0984	128.906	90.6519	128.906	89.9462	128.906	90.5486	128.906	89.8269	128.906	90.4544	128.906	89.7504	128.906	90.3723	128.906	89.7211	128.906	90.3032	128.906	89.736	128.906	90.2448	128.906	89.7857	128.906	90.1923	128.906	89.8569	128.906	90.1395	128.906	89.936	128.906	90.0806	128.906	90.0125
133.301	91.121	133.301	91.1362	133.301	91.0794	133.301	91.1238	133.301	91.0132	133.301	91.0835	133.301	90.9251	133.301	91.0156	133.301	90.8188	133.301	90.9212	133.301	90.6989	133.301	90.8026	133.301	90.5711	133.301	90.6635	133.301	90.4426	133.301	90.5096	133.301	90.3212	133.301	90.3491	133.301	90.2149	133.301	90.1925	133.301	90.1304	133.301	90.0521	133.301	90.0719	133.301	89.9398	133.301	90.0391	133.301	89.8647	133.301	90.0267	133.301	89.8303	133.301	90.0257	133.301	89.8333	133.301	90.0256	133.301	89.8641	133.301	90.0168	133.301	89.9095	133.301	89.9937	133.301	89.9561
139.16	90.8329	139.16	90.8345	139.16	90.8058	139.16	90.8119	139.16	90.7523	139.16	90.7672	139.16	90.6727	139.16	90.7028	139.16	90.568	139.16	90.6217	139.16	90.4406	139.16	90.5273	139.16	90.2947	139.16	90.4237	139.16	90.1369	139.16	90.3158	139.16	89.9766	139.16	90.2093	139.16	89.8261	139.16	90.1103	139.16	89.6992	139.16	90.025	139.16	89.6088	139.16	89.9583	139.16	89.563	139.16	89.9121	139.16	89.5621	139.16	89.8848	139.16	89.5978	139.16	89.8708	139.16	89.6559	139.16	89.8615	139.16	89.7204	139.16	89.8475	139.16	89.7781	139.16	89.821
143.555	90.5081	143.555	90.4813	143.555	90.5098	143.555	90.4307	143.555	90.4862	143.555	90.3585	143.555	90.4378	143.555	90.2678	143.555	90.3659	143.555	90.1628	143.555	90.2729	143.555	90.0487	143.555	90.1618	143.555	89.9316	143.555	90.0374	143.555	89.8184	143.555	89.9065	143.555	89.7169	143.555	89.7782	143.555	89.6344	143.555	89.6636	143.555	89.5772	143.555	89.5742	143.555	89.5483	143.555	89.5191	143.555	89.547	143.555	89.5016	143.555	89.5673	143.555	89.5174	143.555	89.5998	143.555	89.5553	143.555	89.6326	143.555	89.6002	143.555	89.6543	143.555	89.6375	143.555	89.6568
147.949	90.1224	147.949	90.1028	147.949	90.1167	147.949	90.0581	147.949	90.0864	147.949	89.99	147.949	90.0335	147.949	89.9013	147.949	89.9608	147.949	89.796	147.949	89.872	147.949	89.6799	147.949	89.7721	147.949	89.5602	147.949	89.6671	147.949	89.4457	147.949	89.5642	147.949	89.3465	147.949	89.4719	147.949	89.2722	147.949	89.3992	147.949	89.2305	147.949	89.3533	147.949	89.2243	147.949	89.3378	147.949	89.2507	147.949	89.3509	147.949	89.3009	147.949	89.3848	147.949	89.3623	147.949	89.4276	147.949	89.4214	147.949	89.4662	147.949	89.4667	147.949	89.4896	147.949	89.4904
153.809	89.8092	153.809	89.8128	153.809	89.7779	153.809	89.7899	153.809	89.7188	153.809	89.743	153.809	89.6332	153.809	89.6753	153.809	89.5245	153.809	89.5904	153.809	89.3979	153.809	89.4927	153.809	89.2609	153.809	89.3875	153.809	89.1244	153.809	89.2821	153.809	89.0019	153.809	89.1861	153.809	88.9091	153.809	89.111	153.809	88.8611	153.809	89.0685	153.809	88.868	153.809	89.0664	153.809	88.9302	153.809	89.1058	153.809	89.0365	153.809	89.1786	153.809	89.1655	153.809	89.2694	153.809	89.2919	153.809	89.3591	153.809	89.3925	153.809	89.4289	153.809	89.4518	153.809	89.463
159.668	89.2032	159.668	89.1562	159.668	89.2089	159.668	89.0711	159.668	89.1732	159.668	88.9542	159.668	89.0982	159.668	88.8152	159.668	88.9886	159.668	88.6665	159.668	88.851	159.668	88.5228	159.668	88.6945	159.668	88.3995	159.668	88.5311	159.668	88.3117	159.668	88.3767	159.668	88.2724	159.668	88.2506	159.668	88.2912	159.668	88.1746	159.668	88.3715	159.668	88.1678	159.668	88.5082	159.668	88.2406	159.668	88.6858	159.668	88.3882	159.668	88.8798	159.668	88.5894	159.668	89.0604	159.668	88.8112	159.668	89.1985	159.668	89.0173	159.668	89.2707	159.668	89.1756	159.668	89.2637
165.527	89.3231	165.527	89.3126	165.527	89.2806	165.527	89.2487	165.527	89.1872	165.527	89.1328	165.527	89.0462	165.527	88.9689	165.527	88.8621	165.527	88.764	165.527	88.6416	165.527	88.5292	165.527	88.3933	165.527	88.2801	165.527	88.1297	165.527	88.0367	165.527	87.8682	165.527	87.8217	165.527	87.6325	165.527	87.6579	165.527	87.4511	165.527	87.5645	165.527	87.3516	165.527	87.5517	165.527	87.3506	165.527	87.6165	165.527	87.4446	165.527	87.7408	165.527	87.608	165.527	87.893	165.527	87.8004	165.527	88.0355	165.527	87.9784	165.527	88.1327	165.527	88.1058	165.527	88.1595
171.387	89.5423	171.387	89.4811	171.387	89.5534	171.387	89.3714	171.387	89.5134	171.387	89.2159	171.387	89.4218	171.387	89.0183	171.387	89.2793	171.387	88.7846	171.387	89.0882	171.387	88.5239	171.387	88.8531	171.387	88.2505	171.387	88.5826	171.387	87.985	171.387	88.2907	171.387	87.7541	171.387	87.9983	171.387	87.5869	171.387	87.7335	171.387	87.506	171.387	87.528	171.387	87.5165	171.387	87.4091	171.387	87.6016	171.387	87.3889	171.387	87.7266	171.387	87.4575	171.387	87.8516	171.387	87.5849	171.387	87.9427	171.387	87.7323	171.387	87.9783	171.387	87.8632	171.387	87.9504
177.246	89.3534	177.246	89.3084	177.246	89.3488	177.246	89.2124	177.246	89.2969	177.246	89.0654	177.246	89.2007	177.246	88.8688	177.246	89.0635	177.246	88.6258	177.246	88.889	177.246	88.3427	177.246	88.6815	177.246	88.0292	177.246	88.4472	177.246	87.7011	177.246	88.1967	177.246	87.3817	177.246	87.9472	177.246	87.1033	177.246	87.7241	177.246	86.9039	177.246	87.5571	177.246	86.8166	177.246	87.4707	177.246	86.8544	177.246	87.4718	177.246	86.9997	177.246	87.5424	177.246	87.2092	177.246	87.6444	177.246	87.4296	177.246	87.7329	177.246	87.6142	177.246	87.7698	177.246	87.732
183.105	89.2159	183.105	89.1989	183.105	89.1691	183.105	89.1182	183.105	89.0598	183.105	88.9754	183.105	88.8913	183.105	88.7741	183.105	88.6691	183.105	88.5206	183.105	88.4021	183.105	88.2256	183.105	88.1026	183.105	87.906	183.105	87.7871	183.105	87.5854	183.105	87.4767	183.105	87.2934	183.105	87.1965	183.105	87.0623	183.105	86.9743	183.105	86.9194	183.105	86.8355	183.105	86.8784	183.105	86.7962	183.105	86.9322	183.105	86.8539	183.105	87.054	183.105	86.9852	183.105	87.205	183.105	87.1509	183.105	87.3446	183.105	87.3081	183.105	87.4391	183.105	87.421	183.105	87.4671
188.965	89.8586	188.965	89.815	188.965	89.8314	188.965	89.6985	188.965	89.7349	188.965	89.5066	188.965	89.5702	188.965	89.2369	188.965	89.3389	188.965	88.8896	188.965	89.0443	188.965	88.4698	188.965	88.6924	188.965	87.993	188.965	88.2944	188.965	87.4896	188.965	87.8686	188.965	87.0104	188.965	87.4433	188.965	86.6221	188.965	87.0583	188.965	86.3894	188.965	86.762	188.965	86.3429	188.965	86.597	188.965	86.4594	188.965	86.5801	188.965	86.6725	188.965	86.6884	188.965	86.9063	188.965	86.8666	188.965	87.1012	188.965	87.051	188.965	87.2214	188.965	87.1898	188.965	87.2512
196.289	90.3475	196.289	90.3698	196.289	90.27	196.289	90.3364	196.289	90.1345	196.289	90.244	196.289	89.9358	196.289	90.0866	196.289	89.6674	196.289	89.857	196.289	89.3236	196.289	89.5484	196.289	88.9032	196.289	89.1576	196.289	88.4149	196.289	88.689	196.289	87.8838	196.289	88.1604	196.289	87.357	196.289	87.6107	196.289	86.9013	196.289	87.1053	196.289	86.5872	196.289	86.7289	196.289	86.4592	196.289	86.5538	196.289	86.5116	196.289	86.5926	196.289	86.6913	196.289	86.7828	196.289	86.9238	196.289	87.0216	196.289	87.1377	196.289	87.2154	196.289	87.2773	196.289	87.3071
203.613	89.6744	203.613	89.6073	203.613	89.6991	203.613	89.4984	203.613	89.6788	203.613	89.3471	203.613	89.6092	203.613	89.1511	203.613	89.4838	203.613	88.9083	203.613	89.2943	203.613	88.6187	203.613	89.0309	203.613	88.2874	203.613	88.6848	203.613	87.9282	203.613	88.2527	203.613	87.5647	203.613	87.7444	203.613	87.2287	203.613	87.1924	203.613	86.9547	203.613	86.6605	203.613	86.7711	203.613	86.239	203.613	86.691	203.613	86.0126	203.613	86.7044	203.613	86.0101	203.613	86.7758	203.613	86.1819	203.613	86.8527	203.613	86.4314	203.613	86.8814	203.613	86.6654	203.613	86.8229
210.938	89.5901	210.938	89.5382	210.938	89.5987	210.938	89.4434	210.938	89.5614	210.938	89.3029	210.938	89.4742	210.938	89.1092	210.938	89.3318	210.938	88.8492	210.938	89.1284	210.938	88.5055	210.938	88.8586	210.938	88.0626	210.938	88.5202	210.938	87.5173	210.938	88.1186	210.938	86.8952	210.938	87.6731	210.938	86.2681	210.938	87.2234	210.938	85.7565	210.938	86.8308	210.938	85.4881	210.938	86.5646	210.938	85.517	210.938	86.4687	210.938	85.7809	210.938	86.5316	210.938	86.1519	210.938	86.6878	210.938	86.5119	210.938	86.8513	210.938	86.7844	210.938	86.9483	210.938	86.9323
218.262	89.5457	218.262	89.508	218.262	89.5425	218.262	89.4257	218.262	89.5034	218.262	89.2971	218.262	89.433	218.262	89.1207	218.262	89.3328	218.262	88.8936	218.262	89.1992	218.262	88.608	218.262	89.0223	218.262	88.251	218.262	88.7875	218.262	87.8078	218.262	88.4797	218.262	87.2724	218.262	88.0913	218.262	86.6638	218.262	87.6325	218.262	86.0451	218.262	87.1436	218.262	85.5295	218.262	86.6996	218.262	85.2455	218.262	86.391	218.262	85.2562	218.262	86.2723	218.262	85.5063	218.262	86.3152	218.262	85.8622	218.262	86.4202	218.262	86.1913	218.262	86.4757	218.262	86.4066
225.586	89.6944	225.586	89.7675	225.586	89.5642	225.586	89.7819	225.586	89.3796	225.586	89.7362	225.586	89.1454	225.586	89.628	225.586	88.8685	225.586	89.4531	225.586	88.5592	225.586	89.2045	225.586	88.2314	225.586	88.8732	225.586	87.9028	225.586	88.4518	225.586	87.5926	225.586	87.9423	225.586	87.3191	225.586	87.3699	225.586	87.0975	225.586	86.7976	225.586	86.9404	225.586	86.3282	225.586	86.8598	225.586	86.071	225.586	86.8637	225.586	86.0741	225.586	86.9433	225.586	86.2866	225.586	87.0627	225.586	86.596	225.586	87.1645	225.586	86.8922	225.586	87.19	225.586	87.101
232.91	89.7147	232.91	89.7484	232.91	89.6236	232.91	89.7329	232.91	89.4666	232.91	89.6744	232.91	89.2342	232.91	89.5764	232.91	88.9156	232.91	89.4378	232.91	88.4977	232.91	89.2522	232.91	87.9666	232.91	89.008	232.91	87.3126	232.91	88.6896	232.91	86.5416	232.91	88.2819	232.91	85.6952	232.91	87.7787	232.91	84.8756	232.91	87.1966	232.91	84.2517	232.91	86.5929	232.91	83.9945	232.91	86.0708	232.91	84.1503	232.91	85.7465	232.91	84.5941	232.91	85.6714	232.91	85.1297	232.91	85.7811	232.91	85.5955	232.91	85.9361	232.91	85.8972	232.91	86.0025
241.699	89.5377	241.699	89.3665	241.699	89.663	241.699	89.1552	241.699	89.7372	241.699	88.9117	241.699	89.7532	241.699	88.6455	241.699	89.7001	241.699	88.366	241.699	89.5616	241.699	88.0793	241.699	89.3156	241.699	87.7867	241.699	88.9371	241.699	87.4866	241.699	88.4046	241.699	87.1823	241.699	87.7111	241.699	86.8906	241.699	86.8839	241.699	86.6457	241.699	86.0102	241.699	86.4882	241.699	85.2535	241.699	86.4402	241.699	84.8106	241.699	86.4836	241.699	84.783	241.699	86.5615	241.699	85.0902	241.699	86.6013	241.699	85.5489	241.699	86.54	241.699	85.9973	241.699	86.3402
250.488	89.0947	250.488	89.0018	250.488	89.1395	250.488	88.8513	250.488	89.1452	250.488	88.6321	250.488	89.1198	250.488	88.3306	250.488	89.0677	250.488	87.9307	250.488	88.9867	250.488	87.4159	250.488	88.8643	250.488	86.7771	250.488	88.6774	250.488	86.0261	250.488	88.3954	250.488	85.2177	250.488	87.9894	250.488	84.4725	250.488	87.4468	250.488	83.9697	250.488	86.7922	250.488	83.8589	250.488	86.1109	250.488	84.1371	250.488	85.5523	250.488	84.6466	250.488	85.2699	250.488	85.194	250.488	85.3044	250.488	85.6369	250.488	85.5407	250.488	85.8964	250.488	85.801	250.488	85.9446
259.277	90.0383	259.277	90.0646	259.277	89.9855	259.277	90.0611	259.277	89.9051	259.277	90.0204	259.277	89.791	259.277	89.929	259.277	89.6314	259.277	89.7657	259.277	89.4074	259.277	89.5001	259.277	89.0927	259.277	89.0919	259.277	88.6556	259.277	88.4938	259.277	88.0643	259.277	87.6593	259.277	87.2992	259.277	86.5615	259.277	86.3774	259.277	85.2391	259.277	85.3939	259.277	83.8956	259.277	84.5588	259.277	82.9874	259.277	84.1361	259.277	82.9405	259.277	84.2214	259.277	83.5868	259.277	84.6273	259.277	84.3984	259.277	85.0692	259.277	85.0254	259.277	85.3437	259.277	85.3442
268.066	88.61	268.066	88.6255	268.066	88.5735	268.066	88.6235	268.066	88.5212	268.066	88.6142	268.066	88.4654	268.066	88.6061	268.066	88.4183	268.066	88.5957	268.066	88.3837	268.066	88.5603	268.066	88.3494	268.066	88.4568	268.066	88.2852	268.066	88.2295	268.066	88.1481	268.066	87.8231	268.066	87.8918	268.066	87.1977	268.066	87.4798	268.066	86.3505	268.066	86.9013	268.066	85.3504	268.066	86.1924	268.066	84.3824	268.066	85.457	268.066	83.728	268.066	84.8563	268.066	83.5693	268.066	84.5195	268.066	83.7925	268.066	84.4279	268.066	84.1198	268.066	84.4261	268.066	84.3489
276.855	88.4002	276.855	88.3903	276.855	88.3528	276.855	88.3299	276.855	88.2543	276.855	88.2371	276.855	88.1212	276.855	88.1353	276.855	87.9715	276.855	88.0434	276.855	87.8123	276.855	87.9655	276.855	87.6302	276.855	87.8837	276.855	87.3891	276.855	87.7574	276.855	87.041	276.855	87.5337	276.855	86.5443	276.855	87.1623	276.855	85.8907	276.855	86.6163	276.855	85.1389	276.855	85.9204	276.855	84.4436	276.855	85.1816	276.855	84.0185	276.855	84.5911	276.855	83.9786	276.855	84.3235	276.855	84.22	276.855	84.3787	276.855	84.5237	276.855	84.5797	276.855	84.7182	276.855	84.7305
287.109	88.9694	287.109	88.8888	287.109	88.9589	287.109	88.7236	287.109	88.8635	287.109	88.4927	287.109	88.7034	287.109	88.2244	287.109	88.5118	287.109	87.9494	287.109	88.3249	287.109	87.6866	287.109	88.1621	287.109	87.4278	287.109	88.0036	287.109	87.1335	287.109	87.7836	287.109	86.7471	287.109	87.4062	287.109	86.2212	287.109	86.7739	287.109	85.5491	287.109	85.8228	287.109	84.7983	287.109	84.5855	287.109	84.1347	287.109	83.3148	287.109	83.7709	287.109	82.5512	287.109	83.7939	287.109	82.6655	287.109	84.0539	287.109	83.3167	287.109	84.2883	287.109	83.9499	287.109	84.2871
297.363	90.0324	297.363	89.9745	297.363	89.9302	297.363	89.7544	297.363	89.6732	297.363	89.3733	297.363	89.2705	297.363	88.8389	297.363	88.7398	297.363	88.1701	297.363	88.1159	297.363	87.4054	297.363	87.4596	297.363	86.607	297.363	86.8542	297.363	85.8458	297.363	86.3716	297.363	85.1585	297.363	86.0177	297.363	84.5068	297.363	85.7105	297.363	83.7888	297.363	85.3232	297.363	82.9053	297.363	84.7488	297.363	81.8417	297.363	83.947	297.363	80.7566	297.363	82.978	297.363	80.0029	297.363	82.0199	297.363	79.8518	297.363	81.2911	297.363	80.1381	297.363	80.8443	297.363	80.5091
307.617	90.2934	307.617	90.3202	307.617	90.2137	307.617	90.291	307.617	90.0772	307.617	90.1983	307.617	89.8727	307.617	90.0313	307.617	89.5834	307.617	89.7753	307.617	89.1934	307.617	89.4101	307.617	88.6967	307.617	88.9122	307.617	88.1054	307.617	88.2629	307.617	87.4526	307.617	87.465	307.617	86.7815	307.617	86.5636	307.617	86.1255	307.617	85.6561	307.617	85.4932	307.617	84.8641	307.617	84.8788	307.617	84.2604	307.617	84.2881	307.617	83.8213	307.617	83.7538	307.617	83.4744	307.617	83.3209	307.617	83.1795	307.617	83.0197	307.617	82.9539	307.617	82.8587	307.617	82.8386
319.336	89.2199	319.336	89.2023	319.336	89.1773	319.336	89.1263	319.336	89.0824	319.336	89.0013	319.336	88.9514	319.336	88.838	319.336	88.8021	319.336	88.638	319.336	88.646	319.336	88.3845	319.336	88.4799	319.336	88.0369	319.336	88.2792	319.336	87.5353	319.336	87.9963	319.336	86.8155	319.336	87.5657	319.336	85.8344	319.336	86.9222	319.336	84.6156	319.336	86.0328	319.336	83.3297	319.336	84.954	319.336	82.354	319.336	83.9045	319.336	82.0608	319.336	83.2365	319.336	82.3858	319.336	83.1305	319.336	82.9327	319.336	83.3664	319.336	83.3911	319.336	83.5979	319.336	83.6243
329.59	89.1268	329.59	89.1675	329.59	89.0071	329.59	89.1455	329.59	88.8054	329.59	89.0845	329.59	88.5321	329.59	89.0059	329.59	88.2038	329.59	88.919	329.59	87.8318	329.59	88.8139	329.59	87.4173	329.59	88.6572	329.59	86.9585	329.59	88.3928	329.59	86.4629	329.59	87.9501	329.59	85.9468	329.59	87.2596	329.59	85.4151	329.59	86.2779	329.59	84.8457	329.59	85.0279	329.59	84.2128	329.59	83.6634	329.59	83.5485	329.59	82.5078	329.59	82.9789	329.59	81.8988	329.59	82.646	329.59	81.859	329.59	82.5416	329.59	82.1058	329.59	82.4987	329.59	82.3619
341.309	89.9998	341.309	89.8602	341.309	89.9895	341.309	89.5865	341.309	89.8244	341.309	89.2097	341.309	89.509	341.309	88.78	341.309	89.0573	341.309	88.3681	341.309	88.4953	341.309	88.0525	341.309	87.861	341.309	87.8836	341.309	87.2011	341.309	87.8403	341.309	86.5592	341.309	87.8193	341.309	85.9575	341.309	87.6754	341.309	85.3788	341.309	87.2791	341.309	84.7674	341.309	86.5619	341.309	84.0655	341.309	85.5596	341.309	83.2837	341.309	84.4568	341.309	82.5712	341.309	83.5584	341.309	82.1728	341.309	83.0666	341.309	82.1918	341.309	82.8698	341.309	82.4526	341.309	82.7085
353.027	91.0796	353.027	90.9275	353.027	91.1319	353.027	90.673	353.027	91.0853	353.027	90.3157	353.027	90.937	353.027	89.8628	353.027	90.6809	353.027	89.3299	353.027	90.3074	353.027	88.7387	353.027	89.8021	353.027	88.1167	353.027	89.1461	353.027	87.5078	353.027	88.3214	353.027	86.9822	353.027	87.3282	353.027	86.6078	353.027	86.2156	353.027	86.3802	353.027	85.1105	353.027	86.1962	353.027	84.1955	353.027	85.9292	353.027	83.5956	353.027	85.5242	353.027	83.2911	353.027	85.0289	353.027	83.1968	353.027	84.5448	353.027	83.268	353.027	84.133	353.027	83.4801	353.027	83.7821
366.211	90.1028	366.211	90.0581	366.211	90.1261	366.211	89.9762	366.211	90.1422	366.211	89.837	366.211	90.1582	366.211	89.6113	366.211	90.1665	366.211	89.2612	366.211	90.1421	366.211	88.7506	366.211	90.0486	366.211	88.061	366.211	89.8482	366.211	87.2038	366.211	89.5087	366.211	86.2301	366.211	89.0029	366.211	85.2453	366.211	88.3082	366.211	84.4219	366.211	87.4178	366.211	83.9502	366.211	86.3784	366.211	83.8888	366.211	85.3459	366.211	84.0919	366.211	84.5831	366.211	84.3502	366.211	84.2737	366.211	84.5376	366.211	84.3218	366.211	84.6201	366.211	84.4844	366.211	84.6
379.395	88.6526	379.395	88.7092	379.395	88.495	379.395	88.6907	379.395	88.2474	379.395	88.6438	379.395	87.9713	379.395	88.614	379.395	87.7751	379.395	88.6168	379.395	87.7589	379.395	88.6149	379.395	87.9241	379.395	88.5276	379.395	88.147	379.395	88.2644	379.395	88.2573	379.395	87.7598	379.395	88.127	379.395	86.999	379.395	87.7137	379.395	86.0464	379.395	87.0804	379.395	85.0844	379.395	86.4117	379.395	84.4097	379.395	85.9679	379.395	84.2689	379.395	85.9021	379.395	84.6249	379.395	86.1076	379.395	85.2168	379.395	86.3367	379.395	85.7965	379.395	86.3982	379.395	86.2148
392.578	89.0435	392.578	88.9635	392.578	88.9617	392.578	88.7384	392.578	88.7243	392.578	88.4159	392.578	88.3646	392.578	88.0902	392.578	87.9498	392.578	87.8898	392.578	87.5667	392.578	87.8996	392.578	87.2724	392.578	88.0605	392.578	87.0408	392.578	88.178	392.578	86.7696	392.578	88.0299	392.578	86.3486	392.578	87.4511	392.578	85.7316	392.578	86.3766	392.578	84.983	392.578	84.9445	392.578	84.298	392.578	83.7341	392.578	83.9496	392.578	83.5946	392.578	84.1004	392.578	84.4295	392.578	84.6454	392.578	85.382	392.578	85.3144	392.578	85.9741	392.578	85.8598	392.578	86.1155
405.762	89.558	405.762	89.3931	405.762	89.5537	405.762	89.0792	405.762	89.3778	405.762	88.6614	405.762	89.0396	405.762	88.2152	405.762	88.5623	405.762	87.8419	405.762	87.9962	405.762	87.6363	405.762	87.4298	405.762	87.6235	405.762	86.9629	405.762	87.712	405.762	86.6238	405.762	87.7245	405.762	86.3121	405.762	87.4723	405.762	85.8602	405.762	86.8074	405.762	85.1625	405.762	85.6577	405.762	84.2974	405.762	84.1288	405.762	83.606	405.762	82.7654	405.762	83.5008	405.762	82.4894	405.762	83.9644	405.762	83.3017	405.762	84.5671	405.762	84.2751	405.762	84.9301	405.762	84.8558
420.41	89.3562	420.41	89.2526	420.41	89.304	420.41	88.9771	420.41	89.126	420.41	88.5264	420.41	88.8611	420.41	87.9122	420.41	88.5468	420.41	87.1782	420.41	88.2123	420.41	86.4221	420.41	87.8799	420.41	85.7843	420.41	87.5561	420.41	85.3527	420.41	87.2006	420.41	85.0638	420.41	86.6979	420.41	84.7539	420.41	85.8681	420.41	84.3171	420.41	84.5092	420.41	83.8043	420.41	82.4648	420.41	83.3859	420.41	79.8825	420.41	83.1609	420.41	78.0349	420.41	83.0118	420.41	78.4533	420.41	82.7452	420.41	79.8117	420.41	82.2902	420.41	80.9069	420.41	81.6842
435.059	89.2399	435.059	89.2744	435.059	88.9904	435.059	89.0839	435.059	88.5561	435.059	88.6783	435.059	88.0048	435.059	88.1028	435.059	87.4606	435.059	87.4505	435.059	87.075	435.059	86.8346	435.059	86.9217	435.059	86.3013	435.059	86.9194	435.059	85.7629	435.059	86.8957	435.059	85.0445	435.059	86.7009	435.059	83.9919	435.059	86.2543	435.059	82.548	435.059	85.5314	435.059	80.841	435.059	84.5496	435.059	79.3861	435.059	83.3967	435.059	79.0674	435.059	82.3236	435.059	80.0027	435.059	81.7483	435.059	81.2737	435.059	81.862	435.059	82.1824	435.059	82.2918	435.059	82.5026
451.172	91.2027	451.172	91.0677	451.172	91.1662	451.172	90.7959	451.172	90.9163	451.172	90.4093	451.172	90.4141	451.172	89.9214	451.172	89.6445	451.172	89.3619	451.172	88.6675	451.172	88.8237	451.172	87.696	451.172	88.47	451.172	87.0699	451.172	88.4016	451.172	86.9213	451.172	88.4715	451.172	86.9397	451.172	88.3397	451.172	86.6945	451.172	87.6768	451.172	85.9456	451.172	86.2758	451.172	84.7312	451.172	84.2157	451.172	83.5245	451.172	82.4725	451.172	83.1744	451.172	82.6026	451.172	83.8087	451.172	83.8271	451.172	84.647	451.172	84.7976	451.172	85.1642	451.172	85.2284
465.82	91.095	465.82	91.0333	465.82	90.9482	465.82	90.7353	465.82	90.6143	465.82	90.185	465.82	90.1032	465.82	89.4114	465.82	89.4234	465.82	88.5249	465.82	88.6085	465.82	87.7212	465.82	87.7535	465.82	87.1799	465.82	87.0225	465.82	86.9051	465.82	86.5425	465.82	86.7194	465.82	86.2249	465.82	86.3994	465.82	85.7672	465.82	85.7425	465.82	84.8352	465.82	84.5695	465.82	83.2073	465.82	82.8344	465.82	81.0117	465.82	81.131	465.82	79.5006	465.82	81.0214	465.82	80.2829	465.82	82.3946	465.82	82.0638	465.82	83.5936	465.82	83.4108	465.82	83.9524
483.398	91.5984	483.398	91.5957	483.398	91.5398	483.398	91.5124	483.398	91.395	483.398	91.2863	483.398	91.1107	483.398	90.832	483.398	90.6415	483.398	90.0776	483.398	89.9896	483.398	89.0318	483.398	89.2341	483.398	87.8884	483.398	88.5195	483.398	87.045	483.398	87.9743	483.398	86.7274	483.398	87.5921	483.398	86.5988	483.398	87.2063	483.398	86.1311	483.398	86.5779	483.398	85.0521	483.398	85.4843	483.398	83.5252	483.398	83.812	483.398	82.3436	483.398	81.9285	483.398	82.2867	483.398	81.2583	483.398	82.901	483.398	82.2274	483.398	83.4561	483.398	83.2598	483.398	83.6435
499.512	91.9118	499.512	91.8049	499.512	91.8411	499.512	91.5479	499.512	91.5893	499.512	91.1843	499.512	91.1761	499.512	90.7646	499.512	90.6324	499.512	90.3338	499.512	89.9898	499.512	89.9148	499.512	89.2985	499.512	89.5027	499.512	88.672	499.512	89.0854	499.512	88.2653	499.512	88.6573	499.512	88.1051	499.512	88.1778	499.512	87.9698	499.512	87.5014	499.512	87.532	499.512	86.3732	499.512	86.5375	499.512	84.5289	499.512	84.8984	499.512	82.0818	499.512	82.9595	499.512	80.7651	499.512	81.9562	499.512	82.0425	499.512	82.6176	499.512	83.5813	499.512	83.692	499.512	84.1366
517.09	92.4286	517.09	92.3694	517.09	92.3046	517.09	92.1097	517.09	92.0142	517.09	91.6326	517.09	91.5643	517.09	90.9202	517.09	90.9489	517.09	89.974	517.09	90.1818	517.09	88.9069	517.09	89.3907	517.09	88.1084	517.09	88.8643	517.09	88.0691	517.09	88.7835	517.09	88.6127	517.09	88.8777	517.09	88.9967	517.09	88.6647	517.09	88.6946	517.09	87.8295	517.09	87.5706	517.09	86.3519	517.09	85.8908	517.09	84.6673	517.09	84.389	517.09	83.6456	517.09	83.6996	517.09	83.5568	517.09	83.6156	517.09	83.8092	517.09	83.7732	517.09	83.9937	517.09	83.9689
536.133	92.8579	536.133	92.8399	536.133	92.7475	536.133	92.6433	536.133	92.5285	536.133	92.2311	536.133	92.1636	536.133	91.6088	536.133	91.5692	536.133	90.8131	536.133	90.6544	536.133	89.8812	536.133	89.3965	536.133	88.8727	536.133	87.9828	536.133	87.9766	536.133	86.9308	536.133	87.4709	536.133	86.6615	536.133	87.31	536.133	86.7857	536.133	86.999	536.133	86.5665	536.133	86.0429	536.133	85.5359	536.133	84.3093	536.133	83.61	536.133	82.6533	536.133	81.7736	536.133	82.8914	536.133	82.1831	536.133	84.3074	536.133	83.8725	536.133	85.3088	536.133	85.0917	536.133	85.5623
555.176	92.1063	555.176	92.0624	555.176	92.0208	555.176	91.8847	555.176	91.8089	555.176	91.553	555.176	91.4629	555.176	91.0315	555.176	90.9462	555.176	90.3033	555.176	90.2231	555.176	89.4043	555.176	89.3726	555.176	88.4174	555.176	88.7035	555.176	87.474	555.176	88.5447	555.176	86.7952	555.176	88.7347	555.176	86.535	555.176	88.7636	555.176	86.4075	555.176	88.2643	555.176	85.7885	555.176	87.0638	555.176	84.1151	555.176	85.0625	555.176	81.2357	555.176	82.3252	555.176	79.1518	555.176	79.8599	555.176	80.4906	555.176	79.8009	555.176	81.9998	555.176	81.27	555.176	82.2268
574.219	92.6641	574.219	92.5158	574.219	92.7223	574.219	92.3021	574.219	92.646	574.219	91.9923	574.219	92.3921	574.219	91.4917	574.219	91.9074	574.219	90.6875	574.219	91.0977	574.219	89.5393	574.219	89.8151	574.219	88.2542	574.219	87.9558	574.219	87.4765	574.219	85.9272	574.219	87.6396	574.219	85.2854	574.219	88.032	574.219	86.2701	574.219	87.7252	574.219	86.9508	574.219	86.2216	574.219	86.319	574.219	83.3666	574.219	84.1766	574.219	80.2268	574.219	81.5271	574.219	80.5605	574.219	82.0997	574.219	83.2406	574.219	84.7145	574.219	85.4503	574.219	86.3554	574.219	86.5679
594.727	91.8907	594.727	91.8402	594.727	91.8165	594.727	91.6861	594.727	91.5967	594.727	91.4375	594.727	91.2066	594.727	91.0509	594.727	90.6073	594.727	90.384	594.727	89.7465	594.727	89.2143	594.727	88.6056	594.727	87.3972	594.727	87.3202	594.727	85.3619	594.727	86.31	594.727	84.6352	594.727	86.0181	594.727	85.4828	594.727	86.1862	594.727	86.2874	594.727	86.0509	594.727	86.2961	594.727	85.1471	594.727	85.3896	594.727	83.6308	594.727	83.6249	594.727	82.3346	594.727	81.7466	594.727	82.0694	594.727	81.84	594.727	82.8195	594.727	83.4392	594.727	83.8989	594.727	84.2939
615.234	92.1323	615.234	92.0713	615.234	92.0336	615.234	91.8202	615.234	91.826	615.234	91.3721	615.234	91.5637	615.234	90.7484	615.234	91.2262	615.234	89.9652	615.234	90.655	615.234	88.9815	615.234	89.6301	615.234	87.7362	615.234	88.0931	615.234	86.3598	615.234	86.4943	615.234	85.4369	615.234	85.7273	615.234	85.4204	615.234	85.8467	615.234	85.5986	615.234	86.0789	615.234	84.9876	615.234	85.8569	615.234	83.1135	615.234	84.6949	615.234	80.1399	615.234	82.1353	615.234	78.5337	615.234	79.4087	615.234	80.6339	615.234	80.8114	615.234	82.8601	615.234	83.0401	615.234	83.7225
637.207	91.2052	637.207	91.158	637.207	91.1175	637.207	91.0156	637.207	90.9451	637.207	90.8754	637.207	90.7504	637.207	90.7376	637.207	90.5051	637.207	90.3918	637.207	90.0516	637.207	89.5282	637.207	89.1659	637.207	87.9623	637.207	87.6884	637.207	85.9695	637.207	85.8016	637.207	84.7434	637.207	84.5981	637.207	85.0672	637.207	85.032	637.207	85.6917	637.207	85.6956	637.207	85.391	637.207	85.0586	637.207	83.4794	637.207	82.2956	637.207	79.5357	637.207	78.0456	637.207	78.3674	637.207	79.3016	637.207	82.4498	637.207	82.227	637.207	84.5798	637.207	83.8994	637.207	84.7925
659.18	89.6988	659.18	89.6216	659.18	89.7135	659.18	89.4715	659.18	89.7021	659.18	89.2504	659.18	89.6947	659.18	88.9555	659.18	89.6346	659.18	88.6197	659.18	89.3653	659.18	88.271	659.18	88.7507	659.18	87.6702	659.18	87.7703	659.18	86.3077	659.18	86.4367	659.18	84.0656	659.18	84.7755	659.18	82.64	659.18	83.5176	659.18	83.4524	659.18	83.7202	659.18	84.1658	659.18	84.0995	659.18	83.495	659.18	83.0379	659.18	80.9703	659.18	79.8158	659.18	76.0242	659.18	73.9362	659.18	73.0165	659.18	72.5332	659.18	76.4589	659.18	76.7507	659.18	77.9731
682.617	90.8416	682.617	90.6764	682.617	90.7459	682.617	90.3859	682.617	90.3662	682.617	90.1282	682.617	89.8067	682.617	89.9375	682.617	89.1881	682.617	89.6198	682.617	88.5047	682.617	88.868	682.617	87.6862	682.617	87.4751	682.617	86.6911	682.617	85.4329	682.617	85.3655	682.617	83.2096	682.617	83.7108	682.617	82.4248	682.617	82.91	682.617	83.5658	682.617	83.6089	682.617	84.5834	682.617	83.8671	682.617	84.1945	682.617	82.4426	682.617	81.5632	682.617	79.3039	682.617	75.8583	682.617	77.8274	682.617	76.6693	682.617	80.3623	682.617	81.3681	682.617	82.5	682.617	83.0476
707.52	89.8393	707.52	89.7592	707.52	89.6878	707.52	89.4327	707.52	89.3767	707.52	88.9619	707.52	88.897	707.52	88.4542	707.52	88.1936	707.52	87.8633	707.52	87.4393	707.52	87.078	707.52	86.8671	707.52	86.03	707.52	86.1097	707.52	84.5592	707.52	84.5299	707.52	82.616	707.52	82.3118	707.52	81.2765	707.52	81.3975	707.52	81.5926	707.52	81.919	707.52	81.719	707.52	81.6294	707.52	80.5043	707.52	79.79	707.52	78.804	707.52	76.4454	707.52	77.5008	707.52	73.4829	707.52	76.5169	707.52	76.2197	707.52	78.5699	707.52	79.5973	707.52	80.4578
732.422	89.849	732.422	89.4758	732.422	89.9533	732.422	89.016	732.422	89.6276	732.422	88.4741	732.422	88.8936	732.422	87.7735	732.422	88.0042	732.422	87.1477	732.422	87.3628	732.422	86.9339	732.422	87.0534	732.422	86.7352	732.422	86.493	732.422	85.8223	732.422	85.055	732.422	83.9958	732.422	82.8264	732.422	82.0204	732.422	81.0988	732.422	81.7553	732.422	81.0864	732.422	82.5552	732.422	81.9609	732.422	81.8134	732.422	82.0565	732.422	78.604	732.422	80.4205	732.422	76.693	732.422	77.6325	732.422	79.0589	732.422	77.6986	732.422	80.0417	732.422	79.7128	732.422	80.3088
757.324	88.3225	757.324	88.3655	757.324	88.4389	757.324	88.3692	757.324	88.5651	757.324	88.0051	757.324	88.308	757.324	87.1436	757.324	87.4568	757.324	86.0418	757.324	86.4422	757.324	85.2521	757.324	85.8296	757.324	84.7355	757.324	85.0881	757.324	83.4995	757.324	83.5689	757.324	80.974	757.324	81.7263	757.324	79.8919	757.324	80.4089	757.324	81.4481	757.324	80.4067	757.324	81.8821	757.324	81.4255	757.324	81.5855	757.324	81.552	757.324	80.9912	757.324	79.5536	757.324	78.7508	757.324	75.261	757.324	77.8507	757.324	75.6825	757.324	80.0752	757.324	79.2724	757.324	80.7187
785.156	89.1105	785.156	88.7767	785.156	89.059	785.156	88.2892	785.156	88.4375	785.156	87.9034	785.156	87.2959	785.156	87.7878	785.156	86.3802	785.156	87.8419	785.156	86.5192	785.156	87.8073	785.156	86.9027	785.156	87.4975	785.156	86.6521	785.156	86.7088	785.156	85.8266	785.156	85.1653	785.156	84.5992	785.156	82.5695	785.156	82.8266	785.156	78.7502	785.156	81.0463	785.156	77.2381	785.156	81.0284	785.156	79.163	785.156	80.8698	785.156	78.7854	785.156	77.9921	785.156	75.5339	785.156	72.5432	785.156	70.5396	785.156	71.6147	785.156	69.2269	785.156	73.7618	785.156	72.9884
811.523	87.39	811.523	87.4761	811.523	86.9558	811.523	87.1541	811.523	86.4636	811.523	86.7066	811.523	86.0164	811.523	86.1198	811.523	85.3559	811.523	85.1285	811.523	84.1754	811.523	84.2747	811.523	82.489	811.523	83.9677	811.523	80.2607	811.523	82.8743	811.523	77.7814	811.523	80.2733	811.523	77.2727	811.523	79.2793	811.523	78.0546	811.523	80.5958	811.523	79.1789	811.523	80.9839	811.523	80.4031	811.523	80.828	811.523	79.8818	811.523	79.7863	811.523	77.6524	811.523	77.3846	811.523	75.4021	811.523	78.6931	811.523	75.7977	811.523	81.1145	811.523	79.3864	811.523	81.4705
840.82	89.0626	840.82	88.7035	840.82	89.3288	840.82	88.4334	840.82	89.0368	840.82	87.9218	840.82	87.9967	840.82	86.8607	840.82	86.5931	840.82	85.53	840.82	85.4837	840.82	84.852	840.82	84.6851	840.82	84.8827	840.82	83.9043	840.82	84.4255	840.82	83.421	840.82	83.1301	840.82	82.696	840.82	81.4499	840.82	80.0343	840.82	80.4172	840.82	75.4437	840.82	81.4698	840.82	77.2458	840.82	81.9766	840.82	79.6741	840.82	79.7522	840.82	79.5996	840.82	75.785	840.82	77.6382	840.82	74.2842	840.82	75.1935	840.82	76.2265	840.82	75.7069	840.82	77.232
870.117	88.1701	870.117	88.6002	870.117	87.2952	870.117	88.3764	870.117	86.2793	870.117	87.4607	870.117	85.2958	870.117	86.0315	870.117	83.6148	870.117	84.2893	870.117	80.259	870.117	82.6804	870.117	77.4389	870.117	81.7816	870.117	78.3323	870.117	81.4887	870.117	78.9632	870.117	81.138	870.117	78.68	870.117	79.7541	870.117	75.7071	870.117	77.5679	870.117	66.2857	870.117	76.3729	870.117	71.0188	870.117	74.5143	870.117	73.8005	870.117	66.4464	870.117	71.0499	870.117	69.8423	870.117	67.0178	870.117	74.4024	870.117	72.9169	870.117	74.4936	870.117	77.171	870.117	76.7604
900.879	89.3617	900.879	89.1075	900.879	89.4877	900.879	88.8506	900.879	89.0761	900.879	88.5542	900.879	87.8472	900.879	87.8806	900.879	86.185	900.879	86.1721	900.879	84.9043	900.879	83.5474	900.879	84.2765	900.879	82.0957	900.879	84.3055	900.879	81.829	900.879	84.7492	900.879	80.4772	900.879	84.3565	900.879	77.5552	900.879	81.7186	900.879	75.9376	900.879	75.6694	900.879	75.8695	900.879	69.9493	900.879	73.9468	900.879	75.9032	900.879	68.608	900.879	75.9725	900.879	67.0062	900.879	69.1745	900.879	68.562	900.879	72.6666	900.879	68.5975	900.879	75.4392	900.879	72.0854
933.105	90.9127	933.105	90.407	933.105	90.9788	933.105	89.664	933.105	90.367	933.105	88.641	933.105	89.4894	933.105	87.6977	933.105	88.76	933.105	87.274	933.105	87.3087	933.105	86.7035	933.105	84.8266	933.105	85.4244	933.105	83.5889	933.105	83.9783	933.105	83.0285	933.105	82.597	933.105	82.0169	933.105	81.6231	933.105	80.8758	933.105	80.0231	933.105	78.0333	933.105	78.8332	933.105	77.8591	933.105	79.3376	933.105	79.8814	933.105	77.2851	933.105	80.0176	933.105	69.2827	933.105	77.3052	933.105	70.7165	933.105	60.9813	933.105	76.684	933.105	74.0601	933.105	77.6657
965.332	87.436	965.332	86.229	965.332	88.4696	965.332	85.7603	965.332	88.7213	965.332	86.0375	965.332	88.1279	965.332	86.0332	965.332	87.0717	965.332	85.2003	965.332	86.0171	965.332	83.7569	965.332	84.6319	965.332	82.2355	965.332	82.6854	965.332	81.6823	965.332	82.3435	965.332	81.8791	965.332	83.1602	965.332	80.3477	965.332	82.8986	965.332	76.1776	965.332	81.1129	965.332	75.2148	965.332	78.1654	965.332	75.8921	965.332	78.5607	965.332	75.939	965.332	78.4821	965.332	73.0095	965.332	75.6561	965.332	68.882	965.332	74.3161	965.332	74.0252	965.332	70.2227	965.332	73.1971
1,000.49	88.5219	1,000.49	88.37	1,000.49	88.9511	1,000.49	88.0512	1,000.49	89.2558	1,000.49	87.6032	1,000.49	88.7263	1,000.49	87.2312	1,000.49	87.9993	1,000.49	86.4698	1,000.49	87.7674	1,000.49	85.4171	1,000.49	87.0671	1,000.49	84.8074	1,000.49	85.9307	1,000.49	84.3852	1,000.49	84.9442	1,000.49	83.0818	1,000.49	83.436	1,000.49	80.9049	1,000.49	81.4128	1,000.49	79.2964	1,000.49	79.6252	1,000.49	75.7843	1,000.49	80.3882	1,000.49	73.8779	1,000.49	80.0974	1,000.49	76.7811	1,000.49	76.4478	1,000.49	71.1133	1,000.49	74.7085	1,000.49	75.818	1,000.49	77.2207	1,000.49	77.7669	1,000.49	75.7343	1,000.49	75.0903
1,035.64	88.2997	1,035.64	88.4067	1,035.64	87.662	1,035.64	88.3283	1,035.64	86.5496	1,035.64	87.8857	1,035.64	85.6932	1,035.64	86.6673	1,035.64	85.1687	1,035.64	84.8264	1,035.64	84.3766	1,035.64	82.528	1,035.64	83.1022	1,035.64	81.4203	1,035.64	81.1733	1,035.64	82.2856	1,035.64	79.653	1,035.64	82.1819	1,035.64	79.838	1,035.64	81.4951	1,035.64	79.47	1,035.64	79.6531	1,035.64	76.107	1,035.64	78.9522	1,035.64	72.8655	1,035.64	79.753	1,035.64	74.1664	1,035.64	76.7582	1,035.64	71.8997	1,035.64	71.6076	1,035.64	69.5273	1,035.64	43.3285	1,035.64	61.3797	1,035.64	72.2076	1,035.64	71.2275	1,035.64	75.3148
1,072.27	87.9346	1,072.27	88.001	1,072.27	87.0152	1,072.27	86.8444	1,072.27	86.5963	1,072.27	85.6259	1,072.27	86.3759	1,072.27	85.4394	1,072.27	84.9828	1,072.27	84.7367	1,072.27	83.0707	1,072.27	82.0707	1,072.27	82.6944	1,072.27	78.8473	1,072.27	82.3923	1,072.27	77.0957	1,072.27	79.9372	1,072.27	79.2681	1,072.27	78.1648	1,072.27	79.7727	1,072.27	79.7659	1,072.27	77.8879	1,072.27	78.304	1,072.27	77.8989	1,072.27	76.6628	1,072.27	76.8553	1,072.27	77.7763	1,072.27	74.2396	1,072.27	77.1242	1,072.27	71.3383	1,072.27	70.8899	1,072.27	64.8228	1,072.27	68.9052	1,072.27	71.9075	1,072.27	76.5559	1,072.27	78.1338
1,108.89	87.44	1,108.89	86.8693	1,108.89	87.5206	1,108.89	86.5736	1,108.89	86.9473	1,108.89	85.9758	1,108.89	86.167	1,108.89	84.5812	1,108.89	85.4948	1,108.89	83.2785	1,108.89	85.1797	1,108.89	82.6968	1,108.89	83.6032	1,108.89	81.947	1,108.89	79.6728	1,108.89	81.2667	1,108.89	77.3696	1,108.89	79.6222	1,108.89	76.9781	1,108.89	77.7853	1,108.89	75.3817	1,108.89	75.9825	1,108.89	69.8822	1,108.89	70.3853	1,108.89	69.6317	1,108.89	74.6652	1,108.89	73.0283	1,108.89	77.2835	1,108.89	73.7713	1,108.89	69.1772	1,108.89	64.0359	1,108.89	73.5228	1,108.89	72.1783	1,108.89	75.5599	1,108.89	76.0046	1,108.89	74.4306
1,148.44	86.923	1,148.44	87.424	1,148.44	87.0584	1,148.44	87.3472	1,148.44	87.2079	1,148.44	86.7405	1,148.44	86.2866	1,148.44	86.0592	1,148.44	85.3891	1,148.44	84.9013	1,148.44	84.3669	1,148.44	83.1458	1,148.44	83.485	1,148.44	80.2985	1,148.44	83.268	1,148.44	78.2248	1,148.44	82.727	1,148.44	79.2576	1,148.44	82.047	1,148.44	78.8977	1,148.44	80.058	1,148.44	77.0148	1,148.44	76.8155	1,148.44	74.7988	1,148.44	75.3281	1,148.44	78.3653	1,148.44	78.1526	1,148.44	77.7069	1,148.44	76.5466	1,148.44	73.6059	1,148.44	74.0139	1,148.44	70.427	1,148.44	73.4794	1,148.44	58.371	1,148.44	73.9243	1,148.44	73.9223
1,189.45	89.5828	1,189.45	89.2074	1,189.45	89.3403	1,189.45	88.6874	1,189.45	87.9476	1,189.45	87.6985	1,189.45	86.8188	1,189.45	86.237	1,189.45	86.5163	1,189.45	85.3862	1,189.45	85.4774	1,189.45	84.9975	1,189.45	84.6146	1,189.45	84.2062	1,189.45	82.9385	1,189.45	82.9653	1,189.45	77.8887	1,189.45	81.8127	1,189.45	73.9587	1,189.45	81.371	1,189.45	75.7869	1,189.45	76.9759	1,189.45	75.2592	1,189.45	76.0322	1,189.45	72.7083	1,189.45	78.7209	1,189.45	74.6987	1,189.45	76.9399	1,189.45	75.6107	1,189.45	71.7906	1,189.45	70.7533	1,189.45	73.8484	1,189.45	68.8499	1,189.45	75.9657	1,189.45	78.6066	1,189.45	80.5188
1,230.47	89.7348	1,230.47	89.8548	1,230.47	88.8373	1,230.47	88.862	1,230.47	88.154	1,230.47	87.2111	1,230.47	88.1935	1,230.47	86.1134	1,230.47	86.7577	1,230.47	85.28	1,230.47	85.0272	1,230.47	84.0564	1,230.47	85.2992	1,230.47	83.0315	1,230.47	83.7512	1,230.47	81.8601	1,230.47	82.0134	1,230.47	80.6111	1,230.47	80.5699	1,230.47	79.6243	1,230.47	80.9729	1,230.47	79.1704	1,230.47	79.8136	1,230.47	77.2567	1,230.47	75.4816	1,230.47	75.1109	1,230.47	75.7418	1,230.47	78.0902	1,230.47	75.331	1,230.47	77.7068	1,230.47	69.4648	1,230.47	56.6151	1,230.47	73.4355	1,230.47	75.8605	1,230.47	69.8307	1,230.47	70.8195
1,274.41	89.6019	1,274.41	88.8737	1,274.41	89.1123	1,274.41	87.8345	1,274.41	87.8352	1,274.41	87.2926	1,274.41	87.0891	1,274.41	86.8082	1,274.41	86.0139	1,274.41	85.158	1,274.41	84.7766	1,274.41	83.665	1,274.41	83.1789	1,274.41	83.1734	1,274.41	80.3759	1,274.41	81.2229	1,274.41	79.8592	1,274.41	79.9108	1,274.41	77.8646	1,274.41	79.3022	1,274.41	77.1439	1,274.41	78.3106	1,274.41	75.6859	1,274.41	73.7096	1,274.41	76.0582	1,274.41	77.5662	1,274.41	74.1553	1,274.41	79.0234	1,274.41	75.0833	1,274.41	73.617	1,274.41	70.5073	1,274.41	65.0965	1,274.41	72.8524	1,274.41	70.5542	1,274.41	77.8563	1,274.41	79.0622
1,319.82	89.1942	1,319.82	89.3309	1,319.82	88.2348	1,319.82	88.2962	1,319.82	87.7676	1,319.82	87.51	1,319.82	87.6518	1,319.82	86.2563	1,319.82	86.084	1,319.82	84.6781	1,319.82	85.1467	1,319.82	85.1111	1,319.82	84.7796	1,319.82	82.6996	1,319.82	83.5307	1,319.82	81.0709	1,319.82	82.8116	1,319.82	81.2346	1,319.82	80.8763	1,319.82	79.7606	1,319.82	78.917	1,319.82	78.5314	1,319.82	76.175	1,319.82	77.8106	1,319.82	74.1915	1,319.82	77.0953	1,319.82	75.3765	1,319.82	76.8005	1,319.82	75.7455	1,319.82	73.3822	1,319.82	73.1558	1,319.82	71.1467	1,319.82	74.5715	1,319.82	73.6342	1,319.82	76.6047	1,319.82	75.1494
1,366.7	89.1911	1,366.7	88.4281	1,366.7	88.4513	1,366.7	87.1959	1,366.7	87.6452	1,366.7	86.7671	1,366.7	87.3421	1,366.7	85.6126	1,366.7	86.0765	1,366.7	84.9493	1,366.7	85.4167	1,366.7	84.4877	1,366.7	83.24	1,366.7	81.8109	1,366.7	81.8058	1,366.7	81.3666	1,366.7	82.0183	1,366.7	80.6286	1,366.7	79.1572	1,366.7	78.6212	1,366.7	80.356	1,366.7	78.6575	1,366.7	79.2631	1,366.7	78.9637	1,366.7	75.7311	1,366.7	80.8781	1,366.7	76.0083	1,366.7	79.1993	1,366.7	76.7151	1,366.7	77.9669	1,366.7	71.3656	1,366.7	73.821	1,366.7	74.0765	1,366.7	70.5374	1,366.7	72.8925	1,366.7	75.3483
1,413.57	88.8371	1,413.57	88.8422	1,413.57	88.6646	1,413.57	88.2991	1,413.57	88.5864	1,413.57	87.0885	1,413.57	87.3696	1,413.57	85.9249	1,413.57	86.1286	1,413.57	84.6137	1,413.57	86.5793	1,413.57	83.8543	1,413.57	84.5647	1,413.57	82.329	1,413.57	83.2367	1,413.57	81.134	1,413.57	81.9416	1,413.57	79.4824	1,413.57	79.8771	1,413.57	79.1544	1,413.57	78.0783	1,413.57	77.9982	1,413.57	74.6069	1,413.57	76.7598	1,413.57	72.5862	1,413.57	75.3172	1,413.57	75.7064	1,413.57	74.8119	1,413.57	75.6387	1,413.57	75.7238	1,413.57	75.7293	1,413.57	68.8174	1,413.57	73.2624	1,413.57	72.8987	1,413.57	77.8012	1,413.57	77.7756
1,463.38	89.7402	1,463.38	89.2427	1,463.38	89.2131	1,463.38	88.4023	1,463.38	88.8599	1,463.38	88.0038	1,463.38	88.308	1,463.38	87.045	1,463.38	86.787	1,463.38	85.3743	1,463.38	85.6302	1,463.38	84.3662	1,463.38	83.807	1,463.38	83.6827	1,463.38	83.4927	1,463.38	82.5933	1,463.38	82.1138	1,463.38	80.4796	1,463.38	82.3762	1,463.38	77.8751	1,463.38	81.3992	1,463.38	78.1984	1,463.38	79.6908	1,463.38	76.2517	1,463.38	78.3572	1,463.38	71.7861	1,463.38	73.8244	1,463.38	77.3122	1,463.38	76.9638	1,463.38	78.3662	1,463.38	76.3878	1,463.38	71.7008	1,463.38	67.9239	1,463.38	61.0562	1,463.38	60.8723	1,463.38	60.4596
1,516.11	89.0615	1,516.11	89.3885	1,516.11	88.3736	1,516.11	88.9717	1,516.11	88.574	1,516.11	87.7127	1,516.11	87.7535	1,516.11	86.059	1,516.11	86.2719	1,516.11	84.3209	1,516.11	86.0285	1,516.11	83.1192	1,516.11	83.3213	1,516.11	83.9119	1,516.11	82.1581	1,516.11	82.1181	1,516.11	80.7602	1,516.11	77.2691	1,516.11	79.3583	1,516.11	80.6033	1,516.11	77.6245	1,516.11	76.8983	1,516.11	78.9209	1,516.11	78.4554	1,516.11	76.716	1,516.11	74.8536	1,516.11	77.9832	1,516.11	74.5407	1,516.11	79.6068	1,516.11	76.9044	1,516.11	76.9133	1,516.11	74.4039	1,516.11	77.6049	1,516.11	69.8666	1,516.11	76.7551	1,516.11	77.6575
1,568.85	89.8097	1,568.85	89.5506	1,568.85	89.6492	1,568.85	89.1525	1,568.85	89.099	1,568.85	88.1683	1,568.85	87.8375	1,568.85	87.0687	1,568.85	86.0753	1,568.85	86.4568	1,568.85	85.2656	1,568.85	84.0947	1,568.85	83.87	1,568.85	83.065	1,568.85	82.5377	1,568.85	82.5898	1,568.85	77.7704	1,568.85	83.4831	1,568.85	76.5341	1,568.85	79.996	1,568.85	76.2344	1,568.85	76.7929	1,568.85	76.6334	1,568.85	74.3825	1,568.85	78.1219	1,568.85	70.3383	1,568.85	74.0035	1,568.85	74.2845	1,568.85	66.8523	1,568.85	73.8563	1,568.85	74.3243	1,568.85	69.6784	1,568.85	69.2504	1,568.85	74.621	1,568.85	76.886	1,568.85	71.1345
1,624.51	88.3841	1,624.51	88.0498	1,624.51	88.3086	1,624.51	87.7189	1,624.51	87.494	1,624.51	87.1925	1,624.51	86.6329	1,624.51	85.7296	1,624.51	85.9468	1,624.51	84.7766	1,624.51	84.0865	1,624.51	83.6594	1,624.51	82.3193	1,624.51	81.8707	1,624.51	80.5814	1,624.51	80.3632	1,624.51	78.9863	1,624.51	76.9862	1,624.51	78.6849	1,624.51	79.5652	1,624.51	74.783	1,624.51	75.3244	1,624.51	75.1209	1,624.51	75.7242	1,624.51	73.3489	1,624.51	75.228	1,624.51	67.4627	1,624.51	70.9815	1,624.51	73.8497	1,624.51	75.997	1,624.51	70.7659	1,624.51	65.9371	1,624.51	68.1894	1,624.51	69.7969	1,624.51	72.7527	1,624.51	71.0849
1,681.64	88.5815	1,681.64	88.3741	1,681.64	88.1423	1,681.64	87.6074	1,681.64	87.6594	1,681.64	86.5791	1,681.64	86.8689	1,681.64	86.0038	1,681.64	85.7831	1,681.64	84.4995	1,681.64	84.8104	1,681.64	82.2739	1,681.64	82.5049	1,681.64	80.7543	1,681.64	81.1345	1,681.64	80.1095	1,681.64	80.471	1,681.64	79.8433	1,681.64	77.4395	1,681.64	76.5377	1,681.64	76.6222	1,681.64	74.5385	1,681.64	76.69	1,681.64	74.972	1,681.64	71.0801	1,681.64	71.6653	1,681.64	74.6285	1,681.64	74.6766	1,681.64	68.948	1,681.64	74.8419	1,681.64	73.3355	1,681.64	72.9701	1,681.64	73.3773	1,681.64	73.7705	1,681.64	69.4579	1,681.64	73.2568
1,741.7	89.6327	1,741.7	89.44	1,741.7	89.4488	1,741.7	88.833	1,741.7	88.9674	1,741.7	87.7624	1,741.7	88.1535	1,741.7	86.2767	1,741.7	86.8979	1,741.7	85.0771	1,741.7	85.4874	1,741.7	83.7225	1,741.7	84.3442	1,741.7	81.3397	1,741.7	82.8171	1,741.7	80.0944	1,741.7	81.0119	1,741.7	77.7769	1,741.7	78.8334	1,741.7	75.9396	1,741.7	77.6887	1,741.7	76.1206	1,741.7	74.9321	1,741.7	70.2691	1,741.7	76.3492	1,741.7	74.6264	1,741.7	70.5566	1,741.7	69.0432	1,741.7	76.4809	1,741.7	75.8957	1,741.7	74.5303	1,741.7	65.6343	1,741.7	70.7786	1,741.7	73.9899	1,741.7	74.8279	1,741.7	69.3139
1,803.22	90.0054	1,803.22	89.6172	1,803.22	89.9323	1,803.22	89.2166	1,803.22	89.1702	1,803.22	88.3036	1,803.22	87.901	1,803.22	87.0803	1,803.22	86.9916	1,803.22	85.6277	1,803.22	85.9963	1,803.22	84.2181	1,803.22	84.1402	1,803.22	82.4455	1,803.22	81.9029	1,803.22	81.0309	1,803.22	81.1253	1,803.22	79.5556	1,803.22	79.7403	1,803.22	78.479	1,803.22	76.1325	1,803.22	75.1256	1,803.22	77.6892	1,803.22	75.6993	1,803.22	71.7718	1,803.22	73.4317	1,803.22	75.2426	1,803.22	74.244	1,803.22	69.8392	1,803.22	73.9073	1,803.22	77.5142	1,803.22	75.7118	1,803.22	75.5165	1,803.22	75.9178	1,803.22	75.0096	1,803.22	74.1286
1,866.21	89.0625	1,866.21	89.1296	1,866.21	88.6815	1,866.21	88.5865	1,866.21	88.1931	1,866.21	87.9626	1,866.21	87.5878	1,866.21	86.979	1,866.21	85.915	1,866.21	85.6539	1,866.21	84.3669	1,866.21	83.9843	1,866.21	83.4153	1,866.21	82.6273	1,866.21	81.1833	1,866.21	81.4665	1,866.21	79.6651	1,866.21	80.9754	1,866.21	78.3179	1,866.21	75.2423	1,866.21	77.8284	1,866.21	75.7261	1,866.21	73.9871	1,866.21	71.0397	1,866.21	75.3988	1,866.21	74.1375	1,866.21	67.8561	1,866.21	72.8349	1,866.21	68.7109	1,866.21	78.0595	1,866.21	73.4609	1,866.21	66.579	1,866.21	70.0334	1,866.21	72.1568	1,866.21	75.9708	1,866.21	73.7756
1,932.13	87.5996	1,932.13	87.4098	1,932.13	87.6933	1,932.13	87.3143	1,932.13	87.2044	1,932.13	86.9823	1,932.13	86.2537	1,932.13	85.4946	1,932.13	85.6129	1,932.13	84.2569	1,932.13	83.9413	1,932.13	83.7926	1,932.13	82.1958	1,932.13	81.4358	1,932.13	80.797	1,932.13	78.5504	1,932.13	78.7736	1,932.13	76.9044	1,932.13	76.9613	1,932.13	77.2199	1,932.13	72.3981	1,932.13	75.5385	1,932.13	73.9496	1,932.13	74.3364	1,932.13	66.9551	1,932.13	74.0321	1,932.13	71.5779	1,932.13	70.9534	1,932.13	70.1235	1,932.13	73.3095	1,932.13	71.8327	1,932.13	75.5561	1,932.13	71.7365	1,932.13	72.9852	1,932.13	67.2617	1,932.13	72.6166
1,999.51	88.7421	1,999.51	88.4801	1,999.51	88.2393	1,999.51	87.6813	1,999.51	87.7615	1,999.51	86.6814	1,999.51	87.1779	1,999.51	85.9519	1,999.51	86.0385	1,999.51	84.5498	1,999.51	84.8025	1,999.51	82.1981	1,999.51	83.4566	1,999.51	81.1439	1,999.51	81.532	1,999.51	79.4175	1,999.51	80.2062	1,999.51	79.7704	1,999.51	78.0466	1,999.51	76.0131	1,999.51	77.5202	1,999.51	74.0367	1,999.51	75.3371	1,999.51	73.4462	1,999.51	74.0943	1,999.51	70.8287	1,999.51	69.0446	1,999.51	68.1932	1,999.51	71.922	1,999.51	69.3342	1,999.51	73.2885	1,999.51	65.8071	1,999.51	73.4542	1,999.51	69.6198	1,999.51	74.6324	1,999.51	72.985
2,069.82	88.8656	2,069.82	88.9255	2,069.82	89.1749	2,069.82	88.4604	2,069.82	88.5055	2,069.82	88.1467	2,069.82	87.7495	2,069.82	86.7977	2,069.82	87.1479	2,069.82	85.3772	2,069.82	85.3249	2,069.82	83.8873	2,069.82	83.376	2,069.82	82.2671	2,069.82	81.969	2,069.82	80.8922	2,069.82	80.1909	2,069.82	76.9888	2,069.82	81.0444	2,069.82	75.6903	2,069.82	76.6003	2,069.82	73.3519	2,069.82	74.9287	2,069.82	69.8557	2,069.82	73.4898	2,069.82	72.0018	2,069.82	70.7046	2,069.82	72.2855	2,069.82	71.0469	2,069.82	75.3071	2,069.82	75.4758	2,069.82	72.1544	2,069.82	68.1427	2,069.82	65.7001	2,069.82	69.9671	2,069.82	64.2155
2,143.07	88.9851	2,143.07	88.6443	2,143.07	88.417	2,143.07	88.5899	2,143.07	88.1617	2,143.07	87.7658	2,143.07	87.3978	2,143.07	87.2776	2,143.07	85.8245	2,143.07	86.1485	2,143.07	85.0867	2,143.07	84.3886	2,143.07	83.4265	2,143.07	82.2567	2,143.07	81.8415	2,143.07	79.2283	2,143.07	79.4497	2,143.07	80.1677	2,143.07	74.4088	2,143.07	78.1401	2,143.07	76.7504	2,143.07	74.7141	2,143.07	71.4912	2,143.07	74.3119	2,143.07	71.9515	2,143.07	72.6735	2,143.07	70.676	2,143.07	72.3117	2,143.07	69.0784	2,143.07	74.3391	2,143.07	60.6745	2,143.07	70.7696	2,143.07	71.7904	2,143.07	72.2592	2,143.07	72.9277	2,143.07	74.7067
2,219.24	87.6117	2,219.24	87.7641	2,219.24	87.531	2,219.24	87.0512	2,219.24	86.997	2,219.24	87.199	2,219.24	86.471	2,219.24	85.9219	2,219.24	86.2713	2,219.24	84.9426	2,219.24	84.2794	2,219.24	83.8553	2,219.24	82.8742	2,219.24	82.1801	2,219.24	80.0952	2,219.24	81.396	2,219.24	80.0442	2,219.24	77.2493	2,219.24	79.0649	2,219.24	78.1839	2,219.24	74.4045	2,219.24	76.149	2,219.24	75.1113	2,219.24	75.04	2,219.24	72.8477	2,219.24	68.954	2,219.24	67.1616	2,219.24	69.3182	2,219.24	71.5734	2,219.24	69.4696	2,219.24	71.5403	2,219.24	69.2067	2,219.24	71.4329	2,219.24	65.7211	2,219.24	73.1518	2,219.24	72.1302
2,296.88	88.3202	2,296.88	88.1045	2,296.88	88.4753	2,296.88	87.9018	2,296.88	88.3707	2,296.88	87.4843	2,296.88	87.9597	2,296.88	86.6362	2,296.88	86.4991	2,296.88	84.9403	2,296.88	85.3192	2,296.88	82.7235	2,296.88	84.1393	2,296.88	80.9281	2,296.88	82.6204	2,296.88	79.3592	2,296.88	79.9932	2,296.88	78.9758	2,296.88	79.1946	2,296.88	74.5068	2,296.88	78.4977	2,296.88	69.9237	2,296.88	70.1704	2,296.88	66.5707	2,296.88	73.9699	2,296.88	70.3521	2,296.88	67.8679	2,296.88	65.4852	2,296.88	67.5297	2,296.88	70.484	2,296.88	73.3441	2,296.88	70.0014	2,296.88	66.5937	2,296.88	72.3066	2,296.88	66.7394	2,296.88	66.2924
2,378.91	88.7264	2,378.91	88.2848	2,378.91	88.1488	2,378.91	88.3363	2,378.91	87.9567	2,378.91	87.9903	2,378.91	87.5271	2,378.91	87.4161	2,378.91	87.251	2,378.91	86.095	2,378.91	85.4526	2,378.91	84.8815	2,378.91	83.5147	2,378.91	82.4686	2,378.91	81.4409	2,378.91	78.9031	2,378.91	79.9725	2,378.91	77.5157	2,378.91	76.0547	2,378.91	77.785	2,378.91	75.9225	2,378.91	74.486	2,378.91	74.4717	2,378.91	74.1578	2,378.91	70.6568	2,378.91	71.1386	2,378.91	68.0429	2,378.91	71.3628	2,378.91	66.41	2,378.91	70.9406	2,378.91	62.8709	2,378.91	67.9639	2,378.91	72.2893	2,378.91	71.9178	2,378.91	70.4224	2,378.91	72.346
2,462.4	88.2915	2,462.4	88.4875	2,462.4	88.5392	2,462.4	87.9392	2,462.4	88.1535	2,462.4	88.0572	2,462.4	87.7202	2,462.4	87.5032	2,462.4	86.483	2,462.4	86.1663	2,462.4	85.203	2,462.4	84.1056	2,462.4	84.5611	2,462.4	82.9199	2,462.4	82.2063	2,462.4	82.3346	2,462.4	80.4103	2,462.4	80.1982	2,462.4	80.5676	2,462.4	76.9772	2,462.4	75.4103	2,462.4	75.8177	2,462.4	73.0318	2,462.4	73.7698	2,462.4	73.3549	2,462.4	68.5265	2,462.4	62.7187	2,462.4	67.8378	2,462.4	72.0169	2,462.4	71.052	2,462.4	67.4	2,462.4	69.8531	2,462.4	70.345	2,462.4	65.6825	2,462.4	74.1723	2,462.4	74.3432
2,548.83	88.3356	2,548.83	88.0567	2,548.83	88.3155	2,548.83	88.1755	2,548.83	88.5655	2,548.83	87.9937	2,548.83	88.0405	2,548.83	86.4629	2,548.83	87.944	2,548.83	85.9211	2,548.83	86.4296	2,548.83	84.13	2,548.83	83.973	2,548.83	82.2259	2,548.83	82.8343	2,548.83	77.6857	2,548.83	80.5803	2,548.83	78.5278	2,548.83	78.3096	2,548.83	76.7204	2,548.83	78.8292	2,548.83	68.3178	2,548.83	73.9837	2,548.83	69.7652	2,548.83	70.8389	2,548.83	68.4852	2,548.83	68.1859	2,548.83	70.7147	2,548.83	71.5872	2,548.83	70.7913	2,548.83	71.8612	2,548.83	67.8303	2,548.83	67.9275	2,548.83	66.8825	2,548.83	71.6026	2,548.83	70.8774
2,639.65	89.2449	2,639.65	89.1629	2,639.65	88.9875	2,639.65	88.5553	2,639.65	88.7558	2,639.65	88.5834	2,639.65	88.9323	2,639.65	88.1218	2,639.65	87.0388	2,639.65	86.0275	2,639.65	85.94	2,639.65	84.0811	2,639.65	85.1948	2,639.65	82.845	2,639.65	82.3949	2,639.65	81.1474	2,639.65	80.7389	2,639.65	77.8447	2,639.65	79.4417	2,639.65	75.5321	2,639.65	73.6419	2,639.65	74.5108	2,639.65	74.9606	2,639.65	74.1108	2,639.65	72.1261	2,639.65	69.5205	2,639.65	69.4638	2,639.65	69.1893	2,639.65	66.2189	2,639.65	64.7907	2,639.65	67.0998	2,639.65	69.4517	2,639.65	70.9658	2,639.65	70.0081	2,639.65	64.0584	2,639.65	70.2257
2,731.93	87.9128	2,731.93	87.9109	2,731.93	88.2092	2,731.93	88.3476	2,731.93	88.2656	2,731.93	88.3093	2,731.93	87.7925	2,731.93	87.3025	2,731.93	87.989	2,731.93	87.0305	2,731.93	86.0804	2,731.93	84.5967	2,731.93	84.3086	2,731.93	82.1258	2,731.93	83.3615	2,731.93	80.5896	2,731.93	78.9209	2,731.93	80.0731	2,731.93	79.678	2,731.93	78.2255	2,731.93	78.1049	2,731.93	75.3848	2,731.93	68.5791	2,731.93	66.4692	2,731.93	69.7257	2,731.93	66.1251	2,731.93	61.9943	2,731.93	63.6035	2,731.93	69.4626	2,731.93	67.9498	2,731.93	66.9032	2,731.93	67.8767	2,731.93	73.6641	2,731.93	72.4246	2,731.93	67.3865	2,731.93	74.3262
2,828.61	89.6893	2,828.61	89.3013	2,828.61	89.2322	2,828.61	89.2068	2,828.61	89.3792	2,828.61	89.3422	2,828.61	89.3798	2,828.61	88.659	2,828.61	88.0539	2,828.61	86.0144	2,828.61	87.7116	2,828.61	84.8356	2,828.61	85.621	2,828.61	84.1437	2,828.61	82.5799	2,828.61	80.2911	2,828.61	83.8053	2,828.61	79.667	2,828.61	79.2868	2,828.61	76.9029	2,828.61	77.4295	2,828.61	74.3289	2,828.61	75.7681	2,828.61	74.9276	2,828.61	71.243	2,828.61	69.001	2,828.61	67.2778	2,828.61	67.9302	2,828.61	67.223	2,828.61	73.0125	2,828.61	64.3995	2,828.61	61.0113	2,828.61	72.2175	2,828.61	66.3489	2,828.61	71.9307	2,828.61	74.3352
2,928.22	87.981	2,928.22	88.3741	2,928.22	88.6325	2,928.22	88.8634	2,928.22	88.6756	2,928.22	88.7641	2,928.22	88.9676	2,928.22	88.5233	2,928.22	89.059	2,928.22	87.506	2,928.22	86.1731	2,928.22	85.7732	2,928.22	85.8021	2,928.22	82.8592	2,928.22	83.768	2,928.22	82.3791	2,928.22	80.3114	2,928.22	79.504	2,928.22	80.0344	2,928.22	77.8472	2,928.22	78.0556	2,928.22	76.1067	2,928.22	74.3828	2,928.22	67.8752	2,928.22	71.309	2,928.22	74.5486	2,928.22	72.8555	2,928.22	66.0732	2,928.22	72.7303	2,928.22	70.6954	2,928.22	60.9872	2,928.22	69.7504	2,928.22	68.8421	2,928.22	69.6437	2,928.22	73.5442	2,928.22	73.9587
3,030.76	89.5893	3,030.76	89.2178	3,030.76	89.0965	3,030.76	89.1873	3,030.76	89.4859	3,030.76	89.1242	3,030.76	89.0427	3,030.76	88.2117	3,030.76	88.315	3,030.76	86.6926	3,030.76	88.3663	3,030.76	85.9815	3,030.76	85.7558	3,030.76	83.7222	3,030.76	84.6077	3,030.76	81.8361	3,030.76	82.5764	3,030.76	79.8941	3,030.76	79.0073	3,030.76	77.0332	3,030.76	78.7413	3,030.76	70.7875	3,030.76	73.2201	3,030.76	69.5342	3,030.76	71.8769	3,030.76	63.33	3,030.76	69.6958	3,030.76	70.4365	3,030.76	70.4204	3,030.76	69.7038	3,030.76	68.6473	3,030.76	69.94	3,030.76	65.7353	3,030.76	69.6785	3,030.76	69.3525	3,030.76	69.8514
3,137.7	89.2242	3,137.7	89.7396	3,137.7	89.9253	3,137.7	90.1823	3,137.7	89.9703	3,137.7	90.441	3,137.7	89.8745	3,137.7	89.7024	3,137.7	89.5849	3,137.7	88.8176	3,137.7	87.4089	3,137.7	86.4291	3,137.7	86.8433	3,137.7	85.8585	3,137.7	83.6926	3,137.7	83.1209	3,137.7	82.3362	3,137.7	81.3807	3,137.7	81.8041	3,137.7	79.7904	3,137.7	78.12	3,137.7	78.7465	3,137.7	73.0234	3,137.7	70.5409	3,137.7	73.3132	3,137.7	73.925	3,137.7	74.7721	3,137.7	67.8823	3,137.7	70.8272	3,137.7	66.2425	3,137.7	65.3413	3,137.7	67.5072	3,137.7	58.4379	3,137.7	70.851	3,137.7	73.689	3,137.7	71.5046
3,249.02	90.194	3,249.02	89.3946	3,249.02	89.5409	3,249.02	89.6454	3,249.02	89.9275	3,249.02	89.1834	3,249.02	90.5856	3,249.02	89.917	3,249.02	89.4199	3,249.02	88.1187	3,249.02	88.8604	3,249.02	87.3184	3,249.02	86.9748	3,249.02	85.123	3,249.02	85.8054	3,249.02	82.3795	3,249.02	83.5557	3,249.02	80.5556	3,249.02	81.5946	3,249.02	79.8829	3,249.02	79.0233	3,249.02	73.5239	3,249.02	74.0286	3,249.02	69.1522	3,249.02	72.164	3,249.02	67.2876	3,249.02	66.6029	3,249.02	67.1489	3,249.02	66.8691	3,249.02	68.1619	3,249.02	71.8946	3,249.02	69.4208	3,249.02	66.7398	3,249.02	70.0405	3,249.02	70.962	3,249.02	71.3025
3,363.28	90.1991	3,363.28	91.1681	3,363.28	91.1768	3,363.28	91.1753	3,363.28	90.1397	3,363.28	90.7805	3,363.28	89.055	3,363.28	89.2122	3,363.28	89.2663	3,363.28	88.8801	3,363.28	87.9225	3,363.28	87.7668	3,363.28	86.5644	3,363.28	85.6441	3,363.28	84.8524	3,363.28	83.7074	3,363.28	82.0487	3,363.28	81.2165	3,363.28	80.7599	3,363.28	79.3514	3,363.28	78.0707	3,363.28	74.9442	3,363.28	70.9105	3,363.28	74.6668	3,363.28	75.5925	3,363.28	70.4968	3,363.28	68.7813	3,363.28	66.478	3,363.28	59.0961	3,363.28	67.3088	3,363.28	63.8231	3,363.28	67.7929	3,363.28	68.1399	3,363.28	74.5417	3,363.28	69.3147	3,363.28	72.4475
3,481.93	90.9762	3,481.93	90.5902	3,481.93	90.4552	3,481.93	90.4633	3,481.93	91.248	3,481.93	90.4379	3,481.93	90.9517	3,481.93	90.6715	3,481.93	89.6623	3,481.93	88.3547	3,481.93	89.524	3,481.93	87.8091	3,481.93	88.0042	3,481.93	85.4	3,481.93	86.3817	3,481.93	83.638	3,481.93	84.6657	3,481.93	81.4986	3,481.93	82.0489	3,481.93	80.2631	3,481.93	80.2283	3,481.93	67.7428	3,481.93	75.1991	3,481.93	70.1237	3,481.93	72.7439	3,481.93	73.1582	3,481.93	53.7849	3,481.93	53.1008	3,481.93	59.7717	3,481.93	62.7721	3,481.93	70.271	3,481.93	67.4289	3,481.93	65.7588	3,481.93	66.8496	3,481.93	67.7864	3,481.93	72.1435
3,604.98	91.6559	3,604.98	91.5882	3,604.98	90.951	3,604.98	91.127	3,604.98	90.2727	3,604.98	90.5228	3,604.98	90.149	3,604.98	90.0959	3,604.98	89.9163	3,604.98	90.0439	3,604.98	87.8614	3,604.98	87.3987	3,604.98	87.1452	3,604.98	85.9076	3,604.98	84.2133	3,604.98	84.4819	3,604.98	82.6067	3,604.98	80.8184	3,604.98	79.2958	3,604.98	80.7841	3,604.98	79.2858	3,604.98	74.1213	3,604.98	70.9998	3,604.98	77.5313	3,604.98	75.7159	3,604.98	65.0152	3,604.98	65.1424	3,604.98	68.3874	3,604.98	67.6996	3,604.98	68.6807	3,604.98	47.3364	3,604.98	69.0712	3,604.98	58.6904	3,604.98	70.811	3,604.98	69.7055	3,604.98	70.546
3,732.42	91.0986	3,732.42	91.4409	3,732.42	91.2136	3,732.42	90.1145	3,732.42	89.6842	3,732.42	89.5928	3,732.42	88.9454	3,732.42	89.2415	3,732.42	89.5915	3,732.42	88.6589	3,732.42	88.2101	3,732.42	87.5191	3,732.42	87.0625	3,732.42	85.949	3,732.42	85.4138	3,732.42	83.7236	3,732.42	83.9627	3,732.42	80.7605	3,732.42	82.7655	3,732.42	79.4337	3,732.42	78.6577	3,732.42	73.8483	3,732.42	74.9389	3,732.42	66.4392	3,732.42	71.1018	3,732.42	68.499	3,732.42	68.6085	3,732.42	63.9596	3,732.42	58.5789	3,732.42	70.3135	3,732.42	63.1171	3,732.42	64.3721	3,732.42	69.0578	3,732.42	65.6293	3,732.42	71.5385	3,732.42	71.5404
3,864.26	91.5241	3,864.26	91.2692	3,864.26	91.1479	3,864.26	90.6687	3,864.26	90.4955	3,864.26	89.7497	3,864.26	89.8917	3,864.26	89.8553	3,864.26	88.9048	3,864.26	88.4218	3,864.26	88.8952	3,864.26	88.1798	3,864.26	86.8368	3,864.26	84.9115	3,864.26	85.1472	3,864.26	83.4071	3,864.26	82.5968	3,864.26	81.7133	3,864.26	80.3907	3,864.26	80.2875	3,864.26	78.405	3,864.26	75.0575	3,864.26	74.9302	3,864.26	73.4319	3,864.26	72.4883	3,864.26	64.9314	3,864.26	67.265	3,864.26	65.7183	3,864.26	65.92	3,864.26	68.2694	3,864.26	70.0297	3,864.26	55.4752	3,864.26	44.0332	3,864.26	63.7273	3,864.26	75.0823	3,864.26	70.997
4,000.49	90.4566	4,000.49	90.4912	4,000.49	89.9516	4,000.49	89.4693	4,000.49	88.8519	4,000.49	89.1963	4,000.49	88.6684	4,000.49	88.6476	4,000.49	88.6077	4,000.49	88.8484	4,000.49	88.4314	4,000.49	87.6636	4,000.49	87.0346	4,000.49	86.375	4,000.49	85.4688	4,000.49	83.9229	4,000.49	82.2969	4,000.49	81.246	4,000.49	82.5995	4,000.49	80.7052	4,000.49	78.2884	4,000.49	77.3595	4,000.49	76.3101	4,000.49	74.6488	4,000.49	62.0441	4,000.49	71.8612	4,000.49	63.3286	4,000.49	56.9649	4,000.49	70.1751	4,000.49	67.1996	4,000.49	66.7354	4,000.49	68.9729	4,000.49	68.4904	4,000.49	67.1012	4,000.49	71.7151	4,000.49	71.895
4,141.11	90.6414	4,141.11	90.3843	4,141.11	90.3095	4,141.11	88.6657	4,141.11	89.4731	4,141.11	88.8969	4,141.11	89.1314	4,141.11	89.0052	4,141.11	89.2549	4,141.11	88.5421	4,141.11	88.8747	4,141.11	87.3786	4,141.11	87.3721	4,141.11	85.2242	4,141.11	85.8804	4,141.11	82.3266	4,141.11	83.9754	4,141.11	81.5983	4,141.11	81.5388	4,141.11	78.6165	4,141.11	79.5612	4,141.11	75.7386	4,141.11	75.5882	4,141.11	74.0793	4,141.11	69.6154	4,141.11	56.6042	4,141.11	67.2884	4,141.11	67.6065	4,141.11	68.1338	4,141.11	63.4136	4,141.11	57.2006	4,141.11	60.0714	4,141.11	73.6472	4,141.11	68.4429	4,141.11	71.3063	4,141.11	74.0235
4,287.6	90.6935	4,287.6	90.3669	4,287.6	89.8498	4,287.6	88.8535	4,287.6	88.9301	4,287.6	88.8846	4,287.6	89.342	4,287.6	89.4689	4,287.6	89.4398	4,287.6	89.2086	4,287.6	88.782	4,287.6	88.3221	4,287.6	87.5537	4,287.6	86.1034	4,287.6	85.8313	4,287.6	83.5149	4,287.6	83.1615	4,287.6	81.4575	4,287.6	81.2316	4,287.6	81.0915	4,287.6	80.0131	4,287.6	76.7726	4,287.6	73.5227	4,287.6	67.4409	4,287.6	68.5295	4,287.6	68.0044	4,287.6	69.9151	4,287.6	53.9684	4,287.6	74.2476	4,287.6	65.35	4,287.6	62.3427	4,287.6	66.6621	4,287.6	62.9081	4,287.6	69.7635	4,287.6	44.3445	4,287.6	68.4504
4,438.48	90.9804	4,438.48	90.3199	4,438.48	90.1211	4,438.48	89.4983	4,438.48	88.9912	4,438.48	88.8813	4,438.48	89.2202	4,438.48	89.3499	4,438.48	89.4448	4,438.48	88.767	4,438.48	88.5985	4,438.48	87.491	4,438.48	87.7182	4,438.48	85.8609	4,438.48	85.1759	4,438.48	83.4605	4,438.48	82.7152	4,438.48	81.2798	4,438.48	82.4985	4,438.48	78.8635	4,438.48	80.1116	4,438.48	74.1705	4,438.48	72.177	4,438.48	70.0267	4,438.48	69.7025	4,438.48	68.6581	4,438.48	67.6261	4,438.48	69.5972	4,438.48	48.4429	4,438.48	68.4438	4,438.48	68.2541	4,438.48	62.1796	4,438.48	68.0575	4,438.48	63.8628	4,438.48	70.1834	4,438.48	70.7889
4,595.21	90.9126	4,595.21	90.684	4,595.21	90.6935	4,595.21	89.8138	4,595.21	90.119	4,595.21	89.8613	4,595.21	89.94	4,595.21	90.0781	4,595.21	90.1638	4,595.21	89.6662	4,595.21	89.2569	4,595.21	88.1058	4,595.21	88.3362	4,595.21	86.9029	4,595.21	86.2163	4,595.21	84.5286	4,595.21	84.6919	4,595.21	82.0378	4,595.21	81.5712	4,595.21	79.7164	4,595.21	81.8697	4,595.21	76.8907	4,595.21	74.5678	4,595.21	67.5637	4,595.21	71.2344	4,595.21	59.4227	4,595.21	63.5824	4,595.21	60.6718	4,595.21	59.2539	4,595.21	71.0306	4,595.21	62.3213	4,595.21	52.5041	4,595.21	71.8858	4,595.21	63.3318	4,595.21	70.9395	4,595.21	71.5283
4,756.35	90.8078	4,756.35	91.0817	4,756.35	91.0484	4,756.35	90.2942	4,756.35	90.4009	4,756.35	90.2586	4,756.35	89.9267	4,756.35	89.7764	4,756.35	89.9182	4,756.35	89.3721	4,756.35	89.1249	4,756.35	88.3347	4,756.35	88.05	4,756.35	86.5406	4,756.35	86.2159	4,756.35	83.0253	4,756.35	84.0236	4,756.35	81.9528	4,756.35	82.3819	4,756.35	81.5243	4,756.35	80.7278	4,756.35	77.0873	4,756.35	78.0917	4,756.35	69.8888	4,756.35	58.3079	4,756.35	70.4014	4,756.35	71.2867	4,756.35	51.3169	4,756.35	74.0799	4,756.35	64.67	4,756.35	61.8505	4,756.35	66.8736	4,756.35	67.0589	4,756.35	74.2019	4,756.35	61.3276	4,756.35	71.105
4,924.8	91.6002	4,924.8	91.6633	4,924.8	91.5019	4,924.8	91.577	4,924.8	91.0471	4,924.8	90.5472	4,924.8	90.6024	4,924.8	90.0344	4,924.8	89.9119	4,924.8	89.6982	4,924.8	89.3393	4,924.8	89.2051	4,924.8	88.3166	4,924.8	87.4282	4,924.8	86.9886	4,924.8	85.0408	4,924.8	84.799	4,924.8	82.1921	4,924.8	82.1327	4,924.8	81.5113	4,924.8	78.8069	4,924.8	76.507	4,924.8	74.9762	4,924.8	67.4785	4,924.8	73.3648	4,924.8	70.5629	4,924.8	73.2892	4,924.8	55.4443	4,924.8	67.5678	4,924.8	59.3957	4,924.8	68.1345	4,924.8	63.404	4,924.8	67.3424	4,924.8	64.0109	4,924.8	71.6431	4,924.8	65.122
5,097.66	91.4906	5,097.66	91.8198	5,097.66	91.6194	5,097.66	91.3591	5,097.66	90.9162	5,097.66	90.2757	5,097.66	90.2191	5,097.66	89.2077	5,097.66	89.3008	5,097.66	88.5782	5,097.66	88.5669	5,097.66	88.3893	5,097.66	88.3561	5,097.66	86.4243	5,097.66	87.0493	5,097.66	84.4514	5,097.66	83.591	5,097.66	81.7377	5,097.66	82.838	5,097.66	78.7236	5,097.66	81.2773	5,097.66	76.4604	5,097.66	73.6093	5,097.66	66.0983	5,097.66	64.1415	5,097.66	66.3081	5,097.66	58.4548	5,097.66	52.8414	5,097.66	68.5809	5,097.66	70.1776	5,097.66	66.8234	5,097.66	68.5417	5,097.66	69.7225	5,097.66	69.0419	5,097.66	65.0999	5,097.66	67.0296
5,277.83	91.6121	5,277.83	91.7524	5,277.83	91.7634	5,277.83	91.6098	5,277.83	91.2767	5,277.83	90.0423	5,277.83	89.7151	5,277.83	89.235	5,277.83	89.2381	5,277.83	89.3146	5,277.83	89.021	5,277.83	88.5956	5,277.83	88.7361	5,277.83	87.8754	5,277.83	86.6296	5,277.83	85.0032	5,277.83	84.5949	5,277.83	82.5337	5,277.83	81.9036	5,277.83	81.2899	5,277.83	80.1172	5,277.83	77.6282	5,277.83	76.6673	5,277.83	53.7489	5,277.83	61.069	5,277.83	70.7241	5,277.83	66.9185	5,277.83	64.9208	5,277.83	69.879	5,277.83	69.5747	5,277.83	62.9107	5,277.83	60.622	5,277.83	60.3547	5,277.83	66.0686	5,277.83	70.8692	5,277.83	66.9292
5,463.87	91.4876	5,463.87	91.8367	5,463.87	91.3435	5,463.87	91.249	5,463.87	90.8709	5,463.87	89.7825	5,463.87	88.9509	5,463.87	88.7342	5,463.87	88.6511	5,463.87	89.0935	5,463.87	88.171	5,463.87	88.2921	5,463.87	88.4065	5,463.87	86.4374	5,463.87	86.3305	5,463.87	82.9493	5,463.87	82.9869	5,463.87	81.3675	5,463.87	80.9297	5,463.87	79.0261	5,463.87	80.2087	5,463.87	77.1702	5,463.87	73.2398	5,463.87	67.6556	5,463.87	73.9653	5,463.87	70.6978	5,463.87	63.8552	5,463.87	58.841	5,463.87	65.5207	5,463.87	57.0154	5,463.87	64.0497	5,463.87	59.9045	5,463.87	65.1378	5,463.87	66.9284	5,463.87	69.3427	5,463.87	68.8354
5,657.23	91.6277	5,657.23	91.9061	5,657.23	91.523	5,657.23	91.2137	5,657.23	90.6302	5,657.23	89.2883	5,657.23	89.1886	5,657.23	88.2204	5,657.23	88.5445	5,657.23	88.6122	5,657.23	88.8377	5,657.23	87.8135	5,657.23	87.6154	5,657.23	86.1089	5,657.23	85.4574	5,657.23	83.485	5,657.23	83.0379	5,657.23	80.7534	5,657.23	80.3572	5,657.23	80.4214	5,657.23	78.5444	5,657.23	73.5941	5,657.23	75.6256	5,657.23	68.1748	5,657.23	61.9012	5,657.23	70.5272	5,657.23	68.1702	5,657.23	64.2516	5,657.23	65.971	5,657.23	58.1572	5,657.23	70.4303	5,657.23	64.9073	5,657.23	71.446	5,657.23	63.2441	5,657.23	71.4942	5,657.23	52.252
5,856.45	91.2879	5,856.45	91.4227	5,856.45	91.3925	5,856.45	90.5259	5,856.45	90.7356	5,856.45	89.5242	5,856.45	89.7137	5,856.45	88.6273	5,856.45	88.8922	5,856.45	88.6655	5,856.45	88.5303	5,856.45	87.9938	5,856.45	87.621	5,856.45	85.87	5,856.45	84.6998	5,856.45	82.7742	5,856.45	82.5259	5,856.45	80.8652	5,856.45	80.3873	5,856.45	78.0376	5,856.45	78.1425	5,856.45	75.245	5,856.45	68.8743	5,856.45	59.1151	5,856.45	72.6934	5,856.45	65.47	5,856.45	61.796	5,856.45	57.6273	5,856.45	69.1174	5,856.45	61.6942	5,856.45	65.1396	5,856.45	51.4593	5,856.45	66.7149	5,856.45	67.5471	5,856.45	66.6482	5,856.45	64.8679
6,062.99	91.4941	6,062.99	91.2165	6,062.99	90.987	6,062.99	90.6949	6,062.99	90.512	6,062.99	89.9872	6,062.99	89.5185	6,062.99	89.2776	6,062.99	88.8222	6,062.99	88.3195	6,062.99	87.6434	6,062.99	87.3122	6,062.99	86.4834	6,062.99	85.3969	6,062.99	84.4333	6,062.99	81.8699	6,062.99	81.1212	6,062.99	79.8323	6,062.99	79.1398	6,062.99	77.3237	6,062.99	77.7592	6,062.99	74.3746	6,062.99	71.4535	6,062.99	63.8198	6,062.99	73.1988	6,062.99	68.7501	6,062.99	67.5273	6,062.99	59.8909	6,062.99	63.7657	6,062.99	64.3159	6,062.99	63.7552	6,062.99	72.6501	6,062.99	56.8795	6,062.99	69.0633	6,062.99	66.0891	6,062.99	66.2142
6,276.86	92.1766	6,276.86	91.715	6,276.86	91.3723	6,276.86	91.1354	6,276.86	90.6266	6,276.86	90.7254	6,276.86	90.3374	6,276.86	89.3388	6,276.86	89.1837	6,276.86	88.1656	6,276.86	87.6584	6,276.86	86.6482	6,276.86	86.467	6,276.86	84.6331	6,276.86	84.9003	6,276.86	82.4744	6,276.86	82.0237	6,276.86	79.6912	6,276.86	80.1271	6,276.86	79.2746	6,276.86	76.1583	6,276.86	74.0559	6,276.86	73.958	6,276.86	67.6923	6,276.86	61.0016	6,276.86	70.0628	6,276.86	64.7689	6,276.86	60.4667	6,276.86	46.8703	6,276.86	63.0847	6,276.86	58.571	6,276.86	71.7125	6,276.86	68.9254	6,276.86	71.3642	6,276.86	72.2887	6,276.86	66.4111
6,498.05	92.1285	6,498.05	91.4051	6,498.05	90.9035	6,498.05	90.5902	6,498.05	90.1967	6,498.05	90.5391	6,498.05	90.6577	6,498.05	89.355	6,498.05	88.8361	6,498.05	87.4212	6,498.05	87.2112	6,498.05	86.6043	6,498.05	85.5117	6,498.05	85.1937	6,498.05	84.2482	6,498.05	82.0359	6,498.05	81.8272	6,498.05	79.6921	6,498.05	78.3659	6,498.05	78.4076	6,498.05	77.0222	6,498.05	75.7978	6,498.05	70.7104	6,498.05	65.8944	6,498.05	72.0553	6,498.05	66.9288	6,498.05	61.8842	6,498.05	58.1894	6,498.05	62.2092	6,498.05	66.657	6,498.05	63.2309	6,498.05	66.8472	6,498.05	69.3013	6,498.05	66.946	6,498.05	70.9503	6,498.05	65.5364
6,726.56	91.5851	6,726.56	90.7935	6,726.56	90.2566	6,726.56	90.201	6,726.56	90.0961	6,726.56	90.7676	6,726.56	90.2206	6,726.56	89.049	6,726.56	88.0823	6,726.56	87.1386	6,726.56	86.5034	6,726.56	86.7327	6,726.56	86.188	6,726.56	85.6152	6,726.56	85.1121	6,726.56	82.8074	6,726.56	81.9287	6,726.56	80.7488	6,726.56	80.0059	6,726.56	78.2158	6,726.56	77.9852	6,726.56	73.2798	6,726.56	71.2387	6,726.56	56.3598	6,726.56	73.1533	6,726.56	67.8897	6,726.56	56.1613	6,726.56	56.6093	6,726.56	44.7297	6,726.56	65.3182	6,726.56	61.8027	6,726.56	69.03	6,726.56	66.547	6,726.56	60.384	6,726.56	67.9658	6,726.56	64.5619
6,963.87	91.9068	6,963.87	90.8131	6,963.87	90.4902	6,963.87	90.4843	6,963.87	90.0484	6,963.87	90.6883	6,963.87	90.0751	6,963.87	88.3299	6,963.87	87.9008	6,963.87	87.3176	6,963.87	86.7622	6,963.87	87.2119	6,963.87	86.6113	6,963.87	85.5757	6,963.87	85.3235	6,963.87	83.3436	6,963.87	82.5405	6,963.87	79.8452	6,963.87	80.4104	6,963.87	78.6333	6,963.87	77.4283	6,963.87	74.2494	6,963.87	72.5418	6,963.87	63.383	6,963.87	71.0634	6,963.87	63.6125	6,963.87	60.3251	6,963.87	59.867	6,963.87	59.1036	6,963.87	46.8341	6,963.87	67.7809	6,963.87	66.2826	6,963.87	63.5107	6,963.87	62.3228	6,963.87	67.8767	6,963.87	56.7663
7,209.96	91.7021	7,209.96	90.6716	7,209.96	90.15	7,209.96	90.2279	7,209.96	90.0171	7,209.96	89.9369	7,209.96	89.6501	7,209.96	87.7435	7,209.96	87.3907	7,209.96	87.139	7,209.96	86.6694	7,209.96	86.8464	7,209.96	86.4849	7,209.96	85.0632	7,209.96	84.8042	7,209.96	81.9529	7,209.96	81.7983	7,209.96	79.1167	7,209.96	79.143	7,209.96	77.3427	7,209.96	74.9972	7,209.96	74.6252	7,209.96	71.1599	7,209.96	59.1008	7,209.96	74.4643	7,209.96	64.7661	7,209.96	58.9654	7,209.96	54.83	7,209.96	59.1763	7,209.96	62.7961	7,209.96	52.3562	7,209.96	64.7027	7,209.96	68.463	7,209.96	57.6811	7,209.96	68.8761	7,209.96	54.0259
7,464.84	91.1147	7,464.84	90.376	7,464.84	90.528	7,464.84	90.1042	7,464.84	90.0623	7,464.84	89.4876	7,464.84	88.9768	7,464.84	87.2245	7,464.84	87.5466	7,464.84	87.1486	7,464.84	86.9063	7,464.84	86.4402	7,464.84	85.7957	7,464.84	84.2747	7,464.84	83.9512	7,464.84	80.8723	7,464.84	80.99	7,464.84	78.4101	7,464.84	76.8359	7,464.84	76.6496	7,464.84	73.607	7,464.84	70.7512	7,464.84	69.425	7,464.84	66.9396	7,464.84	69.8615	7,464.84	64.1079	7,464.84	67.293	7,464.84	55.6313	7,464.84	63.671	7,464.84	61.4844	7,464.84	59.8217	7,464.84	71.5463	7,464.84	59.2675	7,464.84	61.5781	7,464.84	65.9996	7,464.84	56.4123
7,727.05	90.7242	7,727.05	90.522	7,727.05	90.5565	7,727.05	89.9494	7,727.05	89.7041	7,727.05	88.8545	7,727.05	88.5782	7,727.05	87.3615	7,727.05	87.6889	7,727.05	87.3312	7,727.05	86.8842	7,727.05	85.7391	7,727.05	85.9612	7,727.05	83.5894	7,727.05	83.3225	7,727.05	80.5452	7,727.05	80.6732	7,727.05	78.2275	7,727.05	77.7459	7,727.05	76.3713	7,727.05	71.5132	7,727.05	70.4671	7,727.05	70.8572	7,727.05	59.537	7,727.05	66.7425	7,727.05	60.6811	7,727.05	71.3242	7,727.05	67.654	7,727.05	59.5913	7,727.05	60.6155	7,727.05	67.3428	7,727.05	65.1187	7,727.05	64.9704	7,727.05	64.9734	7,727.05	61.3886	7,727.05	59.1706
7,999.51	90.1566	7,999.51	90.6898	7,999.51	90.8122	7,999.51	89.801	7,999.51	89.2608	7,999.51	88.1662	7,999.51	88.1543	7,999.51	87.6645	7,999.51	87.4888	7,999.51	86.7242	7,999.51	86.3878	7,999.51	85.2707	7,999.51	85.4391	7,999.51	83.5727	7,999.51	84.129	7,999.51	80.6724	7,999.51	80.0498	7,999.51	77.9876	7,999.51	78.9188	7,999.51	76.2744	7,999.51	75.1283	7,999.51	71.0657	7,999.51	71.4297	7,999.51	70.0313	7,999.51	59.8807	7,999.51	55.3112	7,999.51	73.0418	7,999.51	62.8819	7,999.51	61.8202	7,999.51	64.6772	7,999.51	68.0061	7,999.51	61.8701	7,999.51	70.6099	7,999.51	61.9437	7,999.51	65.8986	7,999.51	63.2463
8,282.23	89.6036	8,282.23	90.6068	8,282.23	90.6391	8,282.23	89.2507	8,282.23	88.8538	8,282.23	88.1305	8,282.23	87.8372	8,282.23	87.6346	8,282.23	87.8242	8,282.23	85.7288	8,282.23	85.8858	8,282.23	84.8923	8,282.23	84.4489	8,282.23	83.835	8,282.23	83.7828	8,282.23	80.8508	8,282.23	81.5381	8,282.23	77.8534	8,282.23	77.8752	8,282.23	76.4267	8,282.23	76.6342	8,282.23	73.1863	8,282.23	70.6675	8,282.23	66.6153	8,282.23	65.6398	8,282.23	61.6919	8,282.23	65.3383	8,282.23	61.7494	8,282.23	63.8728	8,282.23	64.3825	8,282.23	64.8811	8,282.23	67.4584	8,282.23	59.2474	8,282.23	70.6927	8,282.23	64.0029	8,282.23	55.2972
8,573.73	89.0168	8,573.73	90.2701	8,573.73	90.2169	8,573.73	88.477	8,573.73	88.1418	8,573.73	88.1272	8,573.73	88.0218	8,573.73	87.1547	8,573.73	87.4622	8,573.73	85.6525	8,573.73	85.5646	8,573.73	84.9764	8,573.73	85.4939	8,573.73	84.2398	8,573.73	84.2829	8,573.73	81.1603	8,573.73	80.8084	8,573.73	78.1225	8,573.73	77.6088	8,573.73	75.6674	8,573.73	74.7757	8,573.73	72.2932	8,573.73	70.8094	8,573.73	59.9436	8,573.73	70.1269	8,573.73	66.8139	8,573.73	68.99	8,573.73	64.8537	8,573.73	66.9838	8,573.73	62.8724	8,573.73	66.1074	8,573.73	65.6091	8,573.73	66.9288	8,573.73	60.7566	8,573.73	60.1719	8,573.73	55.0504
8,876.95	90.122	8,876.95	90.0231	8,876.95	89.9955	8,876.95	88.6256	8,876.95	88.8132	8,876.95	87.9215	8,876.95	87.9193	8,876.95	86.4551	8,876.95	86.733	8,876.95	85.132	8,876.95	85.7045	8,876.95	85.0864	8,876.95	85.6198	8,876.95	83.8283	8,876.95	84.1871	8,876.95	80.769	8,876.95	80.6991	8,876.95	76.2802	8,876.95	77.3003	8,876.95	75.8088	8,876.95	73.8342	8,876.95	73.3726	8,876.95	70.4653	8,876.95	66.6998	8,876.95	58.85	8,876.95	53.3664	8,876.95	65.386	8,876.95	66.5375	8,876.95	64.7131	8,876.95	61.0157	8,876.95	67.5473	8,876.95	60.2553	8,876.95	61.5593	8,876.95	70.7947	8,876.95	66.8889	8,876.95	44.8644
9,188.96	90.917	9,188.96	90.0117	9,188.96	89.7888	9,188.96	89.3686	9,188.96	89.5435	9,188.96	88.535	9,188.96	88.0611	9,188.96	86.2343	9,188.96	86.6157	9,188.96	85.7217	9,188.96	85.8087	9,188.96	85.0227	9,188.96	85.3595	9,188.96	83.2594	9,188.96	83.5314	9,188.96	78.8969	9,188.96	80.0485	9,188.96	75.9367	9,188.96	74.3807	9,188.96	72.4628	9,188.96	72.236	9,188.96	68.1099	9,188.96	66.8361	9,188.96	65.796	9,188.96	66.1132	9,188.96	68.2902	9,188.96	67.9901	9,188.96	67.8586	9,188.96	68.4682	9,188.96	62.6436	9,188.96	68.8836	9,188.96	57.4893	9,188.96	67.095	9,188.96	64.3012	9,188.96	60.2644	9,188.96	58.4448
9,514.16	92.0519	9,514.16	90.5366	9,514.16	90.3593	9,514.16	90.4656	9,514.16	90.4041	9,514.16	88.83	9,514.16	88.3712	9,514.16	86.7718	9,514.16	86.6673	9,514.16	85.6716	9,514.16	85.8815	9,514.16	84.4054	9,514.16	84.0772	9,514.16	82.0344	9,514.16	80.9618	9,514.16	78.0594	9,514.16	78.7981	9,514.16	74.3094	9,514.16	73.7214	9,514.16	70.8872	9,514.16	71.476	9,514.16	66.0163	9,514.16	69.6707	9,514.16	66.0495	9,514.16	54.1081	9,514.16	59.1627	9,514.16	59.1417	9,514.16	67.3944	9,514.16	66.6224	9,514.16	58.414	9,514.16	62.7265	9,514.16	63.1895	9,514.16	53.2437	9,514.16	68.804	9,514.16	63.3132	9,514.16	65.147
9,849.61	92.6427	9,849.61	91.1181	9,849.61	90.9392	9,849.61	90.93	9,849.61	90.8845	9,849.61	88.963	9,849.61	88.5365	9,849.61	86.815	9,849.61	86.7458	9,849.61	85.3536	9,849.61	85.209	9,849.61	83.1165	9,849.61	83.1169	9,849.61	80.397	9,849.61	80.1495	9,849.61	77.1931	9,849.61	77.2677	9,849.61	73.0489	9,849.61	72.5707	9,849.61	71.6366	9,849.61	70.0092	9,849.61	68.9109	9,849.61	57.8931	9,849.61	67.0496	9,849.61	66.3617	9,849.61	65.0898	9,849.61	68.0239	9,849.61	71.2764	9,849.61	70.4561	9,849.61	60.2462	9,849.61	65.0522	9,849.61	64.9941	9,849.61	59.7804	9,849.61	62.3797	9,849.61	61.1684	9,849.61	59.6791
10,196.8	92.8678	10,196.8	91.4274	10,196.8	91.4217	10,196.8	91.1117	10,196.8	90.962	10,196.8	88.9597	10,196.8	88.6849	10,196.8	86.859	10,196.8	86.3761	10,196.8	84.2403	10,196.8	84.451	10,196.8	82.1219	10,196.8	81.6869	10,196.8	79.4282	10,196.8	79.627	10,196.8	74.9199	10,196.8	76.7356	10,196.8	69.3424	10,196.8	70.2092	10,196.8	69.2509	10,196.8	69.593	10,196.8	56.6294	10,196.8	55.6197	10,196.8	69.2078	10,196.8	66.9622	10,196.8	60.4847	10,196.8	60.361	10,196.8	71.1529	10,196.8	66.5753	10,196.8	55.2981	10,196.8	59.5285	10,196.8	59.5355	10,196.8	57.9749	10,196.8	67.1462	10,196.8	61.851	10,196.8	67.2248
10,555.7	92.9584	10,555.7	91.8404	10,555.7	91.7868	10,555.7	91.0463	10,555.7	90.7704	10,555.7	89.1043	10,555.7	88.645	10,555.7	86.4366	10,555.7	85.9426	10,555.7	83.5971	10,555.7	83.4378	10,555.7	80.9181	10,555.7	80.7968	10,555.7	78.4939	10,555.7	78.3858	10,555.7	74.4159	10,555.7	74.0816	10,555.7	66.9491	10,555.7	69.0261	10,555.7	70.3993	10,555.7	65.3412	10,555.7	63.69	10,555.7	58.7449	10,555.7	70.1664	10,555.7	68.6962	10,555.7	67.5792	10,555.7	58.6677	10,555.7	61.6658	10,555.7	69.6667	10,555.7	68.0804	10,555.7	65.9218	10,555.7	57.1124	10,555.7	60.9806	10,555.7	51.9314	10,555.7	63.4856	10,555.7	64.024
10,927.7	92.9576	10,927.7	92.0306	10,927.7	92.0323	10,927.7	90.8459	10,927.7	90.6209	10,927.7	88.9588	10,927.7	88.8159	10,927.7	85.5328	10,927.7	85.696	10,927.7	82.8239	10,927.7	82.9732	10,927.7	79.7885	10,927.7	80.8234	10,927.7	77.3775	10,927.7	77.1396	10,927.7	70.8465	10,927.7	74.3538	10,927.7	64.9357	10,927.7	68.3721	10,927.7	68.7815	10,927.7	63.1665	10,927.7	66.1003	10,927.7	63.0485	10,927.7	70.5887	10,927.7	60.2628	10,927.7	69.621	10,927.7	65.0728	10,927.7	60.3141	10,927.7	67.0699	10,927.7	65.9309	10,927.7	65.8029	10,927.7	58.0477	10,927.7	52.5438	10,927.7	53.4438	10,927.7	59.2919	10,927.7	64.837
11,313	92.9775	11,313	92.2087	11,313	92.1884	11,313	90.8253	11,313	90.2473	11,313	89.1718	11,313	88.5597	11,313	85.2706	11,313	84.7472	11,313	82.7743	11,313	82.6499	11,313	79.0068	11,313	78.813	11,313	75.7075	11,313	74.884	11,313	71.2404	11,313	72.3931	11,313	65.7635	11,313	67.9883	11,313	63.2308	11,313	64.0127	11,313	62.4906	11,313	65.9664	11,313	66.4223	11,313	59.8497	11,313	67.8278	11,313	69.2543	11,313	61.6481	11,313	68.0537	11,313	69.49	11,313	70.7866	11,313	58.1664	11,313	55.8209	11,313	57.8509	11,313	61.3998	11,313	63.1743
11,712.9	93.2298	11,712.9	92.6329	11,712.9	92.5287	11,712.9	90.9997	11,712.9	90.5634	11,712.9	89.2421	11,712.9	88.5031	11,712.9	85.0793	11,712.9	84.4489	11,712.9	81.9021	11,712.9	81.6395	11,712.9	77.7636	11,712.9	78.5777	11,712.9	74.1673	11,712.9	74.7346	11,712.9	68.5815	11,712.9	72.4056	11,712.9	66.8552	11,712.9	66.3061	11,712.9	63.7393	11,712.9	66.426	11,712.9	62.408	11,712.9	55.8096	11,712.9	61.8777	11,712.9	66.6534	11,712.9	70.5942	11,712.9	68.196	11,712.9	57.3053	11,712.9	68.3452	11,712.9	70.2077	11,712.9	70.2389	11,712.9	55.0638	11,712.9	63.1578	11,712.9	59.9758	11,712.9	52.4695	11,712.9	56.1118
12,126	93.7366	12,126	93.0179	12,126	92.8499	12,126	91.2284	12,126	90.838	12,126	89.3704	12,126	88.4703	12,126	84.5159	12,126	84.3347	12,126	80.8548	12,126	80.6746	12,126	76.2958	12,126	76.4808	12,126	72.3913	12,126	73.1868	12,126	69.4385	12,126	70.9955	12,126	66.2865	12,126	67.8626	12,126	65.8975	12,126	64.7511	12,126	60.9795	12,126	64.0785	12,126	46.8076	12,126	70.0712	12,126	71.8973	12,126	68.0203	12,126	64.3569	12,126	69.4381	12,126	69.6774	12,126	66.232	12,126	51.0043	12,126	60.0379	12,126	53.9636	12,126	57.5294	12,126	61.9111
12,553.7	93.8629	12,553.7	93.2216	12,553.7	93.0066	12,553.7	91.4085	12,553.7	90.8935	12,553.7	89.3985	12,553.7	88.0273	12,553.7	84.2703	12,553.7	84.0952	12,553.7	79.3558	12,553.7	79.186	12,553.7	75.3149	12,553.7	75.7684	12,553.7	73.8535	12,553.7	73.8778	12,553.7	71.3534	12,553.7	70.585	12,553.7	69.9558	12,553.7	68.8399	12,553.7	66.9212	12,553.7	66.2939	12,553.7	67.4508	12,553.7	63.5838	12,553.7	59.2843	12,553.7	68.7628	12,553.7	70.0456	12,553.7	56.8675	12,553.7	63.4912	12,553.7	68.59	12,553.7	71.9912	12,553.7	69.8471	12,553.7	60.3537	12,553.7	65.9743	12,553.7	54.6931	12,553.7	55.5853	12,553.7	58.5903
12,996.1	93.6105	12,996.1	92.9195	12,996.1	92.3187	12,996.1	91.3475	12,996.1	90.6822	12,996.1	88.7474	12,996.1	87.3599	12,996.1	83.2663	12,996.1	83.3433	12,996.1	77.9019	12,996.1	77.9552	12,996.1	74.7114	12,996.1	74.7278	12,996.1	75.9183	12,996.1	74.7505	12,996.1	74.409	12,996.1	73.0906	12,996.1	70.2209	12,996.1	70.6954	12,996.1	70.4297	12,996.1	65.896	12,996.1	66.7357	12,996.1	62.2401	12,996.1	61.1962	12,996.1	71.2746	12,996.1	68.7195	12,996.1	58.5723	12,996.1	58.7834	12,996.1	70.5792	12,996.1	65.3412	12,996.1	70.1138	12,996.1	65.1244	12,996.1	60.5881	12,996.1	59.5701	12,996.1	50.1654	12,996.1	39.2321
13,454.6	92.9619	13,454.6	92.3799	13,454.6	91.475	13,454.6	90.8936	13,454.6	90.2383	13,454.6	88.277	13,454.6	87.4247	13,454.6	82.114	13,454.6	82.4929	13,454.6	76.5644	13,454.6	77.1569	13,454.6	75.3206	13,454.6	75.5275	13,454.6	76.5164	13,454.6	76.2547	13,454.6	76.2777	13,454.6	73.9831	13,454.6	70.0227	13,454.6	72.0414	13,454.6	70.0419	13,454.6	62.3708	13,454.6	57.2788	13,454.6	65.1833	13,454.6	58.8481	13,454.6	71.4986	13,454.6	63.1877	13,454.6	61.8481	13,454.6	61.498	13,454.6	69.1326	13,454.6	65.967	13,454.6	69.4778	13,454.6	64.274	13,454.6	63.5235	13,454.6	64.0975	13,454.6	52.4648	13,454.6	52.7911
13,929.2	92.0306	13,929.2	91.7749	13,929.2	90.6595	13,929.2	90.6664	13,929.2	89.8358	13,929.2	87.5745	13,929.2	87.3912	13,929.2	80.8673	13,929.2	81.5203	13,929.2	77.1615	13,929.2	77.6905	13,929.2	76.1991	13,929.2	77.8975	13,929.2	77.0137	13,929.2	77.7755	13,929.2	75.2727	13,929.2	74.7111	13,929.2	70.62	13,929.2	71.8443	13,929.2	70.4892	13,929.2	63.0479	13,929.2	62.8635	13,929.2	66.7686	13,929.2	65.1892	13,929.2	62.6892	13,929.2	64.2158	13,929.2	54.0442	13,929.2	65.539	13,929.2	66.2724	13,929.2	66.4114	13,929.2	66.9452	13,929.2	66.9996	13,929.2	65.3197	13,929.2	65.1864	13,929.2	55.9553	13,929.2	52.8954
14,419.9	91.0448	14,419.9	91.21	14,419.9	90.1103	14,419.9	90.1579	14,419.9	89.4446	14,419.9	86.7576	14,419.9	87.058	14,419.9	80.7025	14,419.9	80.3502	14,419.9	77.8923	14,419.9	78.734	14,419.9	77.0983	14,419.9	78.5598	14,419.9	76.905	14,419.9	77.2745	14,419.9	75.82	14,419.9	73.3835	14,419.9	71.9111	14,419.9	70.5135	14,419.9	69.1994	14,419.9	65.7558	14,419.9	64.681	14,419.9	61.6445	14,419.9	58.1326	14,419.9	62.7897	14,419.9	68.0284	14,419.9	65.09	14,419.9	67.8179	14,419.9	64.5429	14,419.9	64.8431	14,419.9	64.5354	14,419.9	67.3804	14,419.9	64.1836	14,419.9	64.0451	14,419.9	57.9018	14,419.9	56.3991
14,928.2	90.433	14,928.2	90.6065	14,928.2	90.1372	14,928.2	89.5152	14,928.2	88.9804	14,928.2	86.3998	14,928.2	85.9569	14,928.2	80.8324	14,928.2	80.3135	14,928.2	77.6726	14,928.2	80.2005	14,928.2	76.7699	14,928.2	77.908	14,928.2	77.7856	14,928.2	76.1329	14,928.2	75.8565	14,928.2	71.9146	14,928.2	72.5432	14,928.2	67.0914	14,928.2	69.5723	14,928.2	67.9686	14,928.2	66.5459	14,928.2	54.6272	14,928.2	47.4695	14,928.2	56.6955	14,928.2	69.447	14,928.2	55.8355	14,928.2	66.7316	14,928.2	62.671	14,928.2	62.5228	14,928.2	59.873	14,928.2	67.2285	14,928.2	59.6111	14,928.2	61.3659	14,928.2	60.6752	14,928.2	57.5134
15,455.6	90.1678	15,455.6	90.0542	15,455.6	89.9782	15,455.6	89.2881	15,455.6	88.399	15,455.6	86.145	15,455.6	84.8991	15,455.6	80.7919	15,455.6	80.8901	15,455.6	78.3304	15,455.6	80.0072	15,455.6	77.6583	15,455.6	76.6667	15,455.6	77.5874	15,455.6	75.0608	15,455.6	75.9045	15,455.6	71.4685	15,455.6	72.2183	15,455.6	69.3751	15,455.6	70.5825	15,455.6	66.4179	15,455.6	63.0528	15,455.6	61.3684	15,455.6	58.2195	15,455.6	54.9867	15,455.6	66.1215	15,455.6	53.1198	15,455.6	62.1133	15,455.6	62.5458	15,455.6	57.7855	15,455.6	61.0822	15,455.6	64.4877	15,455.6	49.9423	15,455.6	65.6177	15,455.6	56.0288	15,455.6	51.5712
16,000.5	90.1311	16,000.5	89.6265	16,000.5	89.8771	16,000.5	88.6994	16,000.5	87.6514	16,000.5	85.9564	16,000.5	84.5853	16,000.5	81.3651	16,000.5	81.8543	16,000.5	77.5946	16,000.5	78.7964	16,000.5	78.4883	16,000.5	76.3345	16,000.5	78.4934	16,000.5	75.6403	16,000.5	76.7407	16,000.5	74.1736	16,000.5	73.4876	16,000.5	70.1642	16,000.5	69.4809	16,000.5	66.6869	16,000.5	66.8543	16,000.5	63.7945	16,000.5	56.3424	16,000.5	54.2128	16,000.5	64.5824	16,000.5	52.2068	16,000.5	64.097	16,000.5	60.7366	16,000.5	52.4012	16,000.5	58.7697	16,000.5	65.443	16,000.5	46.2636	16,000.5	62.9209	16,000.5	52.8177	16,000.5	44.2091
16,564.5	90.1236	16,564.5	89.0262	16,564.5	89.3711	16,564.5	88.0666	16,564.5	86.8846	16,564.5	85.0987	16,564.5	83.9056	16,564.5	81.4806	16,564.5	80.9021	16,564.5	78.6259	16,564.5	77.6483	16,564.5	78.5178	16,564.5	76.7684	16,564.5	78.8778	16,564.5	77.251	16,564.5	76.3098	16,564.5	74.717	16,564.5	73.4373	16,564.5	70.3406	16,564.5	68.1308	16,564.5	67.9846	16,564.5	65.9675	16,564.5	61.1765	16,564.5	57.7489	16,564.5	53.9917	16,564.5	66.608	16,564.5	53.3001	16,564.5	57.6619	16,564.5	56.2385	16,564.5	52.2263	16,564.5	63.7906	16,564.5	63.1048	16,564.5	57.0849	16,564.5	61.1095	16,564.5	53.7909	16,564.5	52.6091
17,148.9	89.919	17,148.9	88.5169	17,148.9	88.7237	17,148.9	87.1997	17,148.9	86.1637	17,148.9	83.9933	17,148.9	83.2605	17,148.9	81.0683	17,148.9	80.3705	17,148.9	78.7477	17,148.9	76.992	17,148.9	79.2566	17,148.9	77.4863	17,148.9	78.3777	17,148.9	77.0862	17,148.9	75.4693	17,148.9	72.9021	17,148.9	72.2349	17,148.9	69.2658	17,148.9	67.9086	17,148.9	64.3636	17,148.9	62.9445	17,148.9	63.6569	17,148.9	60.7304	17,148.9	59.7276	17,148.9	51.0661	17,148.9	54.0166	17,148.9	65.2618	17,148.9	57.8341	17,148.9	59.0854	17,148.9	61.4409	17,148.9	59.3922	17,148.9	61.8197	17,148.9	60.6721	17,148.9	61.4534	17,148.9	44.5246
17,752.4	89.3237	17,752.4	87.7712	17,752.4	88.0154	17,752.4	86.0057	17,752.4	85.3902	17,752.4	82.6331	17,752.4	82.3424	17,752.4	80.2498	17,752.4	79.1711	17,752.4	78.9983	17,752.4	76.8084	17,752.4	79.0208	17,752.4	76.5285	17,752.4	78.2164	17,752.4	75.1016	17,752.4	74.9779	17,752.4	71.8708	17,752.4	71.4175	17,752.4	67.3519	17,752.4	66.4963	17,752.4	60.6168	17,752.4	63.9833	17,752.4	53.6811	17,752.4	41.4419	17,752.4	65.1804	17,752.4	56.6501	17,752.4	62.9762	17,752.4	63.5622	17,752.4	60.0101	17,752.4	58.9316	17,752.4	58.4542	17,752.4	57.9731	17,752.4	62.1806	17,752.4	60.4393	17,752.4	60.9427	17,752.4	44.5304
18,379.4	88.676	18,379.4	87.0218	18,379.4	87.2141	18,379.4	84.6946	18,379.4	84.4689	18,379.4	81.4368	18,379.4	81.7692	18,379.4	79.0639	18,379.4	78.0952	18,379.4	79.1608	18,379.4	76.4201	18,379.4	78.3199	18,379.4	74.8866	18,379.4	77.4456	18,379.4	73.6263	18,379.4	74.2486	18,379.4	68.7259	18,379.4	69.9471	18,379.4	65.7588	18,379.4	64.514	18,379.4	55.9087	18,379.4	62.7806	18,379.4	56.1547	18,379.4	56.6275	18,379.4	64.4891	18,379.4	62.4817	18,379.4	58.1743	18,379.4	60.0094	18,379.4	56.6433	18,379.4	58.6792	18,379.4	58.772	18,379.4	55.0489	18,379.4	55.9044	18,379.4	62.0496	18,379.4	61.2189	18,379.4	40.0037
19,026.9	88.0395	19,026.9	86.3448	19,026.9	86.4596	19,026.9	83.331	19,026.9	83.5609	19,026.9	80.2681	19,026.9	80.8155	19,026.9	77.6687	19,026.9	76.7692	19,026.9	78.4862	19,026.9	75.3624	19,026.9	77.1273	19,026.9	72.9749	19,026.9	76.0546	19,026.9	70.7186	19,026.9	72.832	19,026.9	66.628	19,026.9	67.5586	19,026.9	62.5164	19,026.9	64.3762	19,026.9	60.6304	19,026.9	59.5625	19,026.9	51.49	19,026.9	49.5385	19,026.9	55.3185	19,026.9	54.3311	19,026.9	59.9028	19,026.9	51.3919	19,026.9	58.2335	19,026.9	57.7066	19,026.9	57.7756	19,026.9	53.5379	19,026.9	43.775	19,026.9	54.5481	19,026.9	58.9738	19,026.9	51.1713
19,697.8	87.1659	19,697.8	85.4502	19,697.8	85.5431	19,697.8	82.2372	19,697.8	82.7332	19,697.8	78.7625	19,697.8	79.9403	19,697.8	76.8767	19,697.8	75.6915	19,697.8	77.5199	19,697.8	73.7139	19,697.8	75.3471	19,697.8	70.0253	19,697.8	73.9996	19,697.8	66.9115	19,697.8	70.0431	19,697.8	60.3998	19,697.8	63.591	19,697.8	57.1561	19,697.8	61.7431	19,697.8	55.4009	19,697.8	57.0296	19,697.8	44.4198	19,697.8	48.3984	19,697.8	54.3431	19,697.8	48.5568	19,697.8	58.4764	19,697.8	56.4048	19,697.8	57.2473	19,697.8	53.679	19,697.8	60.3984	19,697.8	54.2281	19,697.8	48.3432	19,697.8	55.1897	19,697.8	56.2218	19,697.8	50.1443
19,999.5	87.2416	19,999.5	85.2597	19,999.5	85.4536	19,999.5	81.2845	19,999.5	82.3415	19,999.5	78.2703	19,999.5	80.1204	19,999.5	76.7245	19,999.5	74.9097	19,999.5	76.41	19,999.5	72.8828	19,999.5	74.7101	19,999.5	70.3333	19,999.5	72.5326	19,999.5	65.465	19,999.5	69.0015	19,999.5	52.9845	19,999.5	60.3498	19,999.5	57.8612	19,999.5	59.6891	19,999.5	43.2686	19,999.5	63.2406	19,999.5	58.1818	19,999.5	47.9651	19,999.5	32.5673	19,999.5	55.7493	19,999.5	57.2795	19,999.5	60.0694	19,999.5	58.959	19,999.5	59.679	19,999.5	59.6877	19,999.5	55.5814	19,999.5	58.1464	19,999.5	60.2505	19,999.5	55.6687	19,999.5	34.464
