"SPL Vertical"
"On-Axis"		"10°"		"-10°"		"20°"		"-20°"		"30°"		"-30°"		"40°"		"-40°"		"50°"		"-50°"		"60°"		"-60°"		"70°"		"-70°"		"80°"		"-80°"		"90°"		"-90°"		"100°"		"-100°"		"110°"		"-110°"		"120°"		"-120°"		"130°"		"-130°"		"140°"		"-140°"		"150°"		"-150°"		"160°"		"-160°"		"170°"		"-170°"		"180°"
"Frequency / Hz"	"Sound Pressure Level / dB (re 20 µPa/V)  [2.83  V @ 1. m]"	"Frequency / Hz"	"Sound Pressure Level / dB (re 20 µPa/V)  [2.83  V @ 1. m]"	"Frequency / Hz"	"Sound Pressure Level / dB (re 20 µPa/V)  [2.83  V @ 1. m]"	"Frequency / Hz"	"Sound Pressure Level / dB (re 20 µPa/V)  [2.83  V @ 1. m]"	"Frequency / Hz"	"Sound Pressure Level / dB (re 20 µPa/V)  [2.83  V @ 1. m]"	"Frequency / Hz"	"Sound Pressure Level / dB (re 20 µPa/V)  [2.83  V @ 1. m]"	"Frequency / Hz"	"Sound Pressure Level / dB (re 20 µPa/V)  [2.83  V @ 1. m]"	"Frequency / Hz"	"Sound Pressure Level / dB (re 20 µPa/V)  [2.83  V @ 1. m]"	"Frequency / Hz"	"Sound Pressure Level / dB (re 20 µPa/V)  [2.83  V @ 1. m]"	"Frequency / Hz"	"Sound Pressure Level / dB (re 20 µPa/V)  [2.83  V @ 1. m]"	"Frequency / Hz"	"Sound Pressure Level / dB (re 20 µPa/V)  [2.83  V @ 1. m]"	"Frequency / Hz"	"Sound Pressure Level / dB (re 20 µPa/V)  [2.83  V @ 1. m]"	"Frequency / Hz"	"Sound Pressure Level / dB (re 20 µPa/V)  [2.83  V @ 1. m]"	"Frequency / Hz"	"Sound Pressure Level / dB (re 20 µPa/V)  [2.83  V @ 1. m]"	"Frequency / Hz"	"Sound Pressure Level / dB (re 20 µPa/V)  [2.83  V @ 1. m]"	"Frequency / Hz"	"Sound Pressure Level / dB (re 20 µPa/V)  [2.83  V @ 1. m]"	"Frequency / Hz"	"Sound Pressure Level / dB (re 20 µPa/V)  [2.83  V @ 1. m]"	"Frequency / Hz"	"Sound Pressure Level / dB (re 20 µPa/V)  [2.83  V @ 1. m]"	"Frequency / Hz"	"Sound Pressure Level / dB (re 20 µPa/V)  [2.83  V @ 1. m]"	"Frequency / Hz"	"Sound Pressure Level / dB (re 20 µPa/V)  [2.83  V @ 1. m]"	"Frequency / Hz"	"Sound Pressure Level / dB (re 20 µPa/V)  [2.83  V @ 1. m]"	"Frequency / Hz"	"Sound Pressure Level / dB (re 20 µPa/V)  [2.83  V @ 1. m]"	"Frequency / Hz"	"Sound Pressure Level / dB (re 20 µPa/V)  [2.83  V @ 1. m]"	"Frequency / Hz"	"Sound Pressure Level / dB (re 20 µPa/V)  [2.83  V @ 1. m]"	"Frequency / Hz"	"Sound Pressure Level / dB (re 20 µPa/V)  [2.83  V @ 1. m]"	"Frequency / Hz"	"Sound Pressure Level / dB (re 20 µPa/V)  [2.83  V @ 1. m]"	"Frequency / Hz"	"Sound Pressure Level / dB (re 20 µPa/V)  [2.83  V @ 1. m]"	"Frequency / Hz"	"Sound Pressure Level / dB (re 20 µPa/V)  [2.83  V @ 1. m]"	"Frequency / Hz"	"Sound Pressure Level / dB (re 20 µPa/V)  [2.83  V @ 1. m]"	"Frequency / Hz"	"Sound Pressure Level / dB (re 20 µPa/V)  [2.83  V @ 1. m]"	"Frequency / Hz"	"Sound Pressure Level / dB (re 20 µPa/V)  [2.83  V @ 1. m]"	"Frequency / Hz"	"Sound Pressure Level / dB (re 20 µPa/V)  [2.83  V @ 1. m]"	"Frequency / Hz"	"Sound Pressure Level / dB (re 20 µPa/V)  [2.83  V @ 1. m]"	"Frequency / Hz"	"Sound Pressure Level / dB (re 20 µPa/V)  [2.83  V @ 1. m]"	"Frequency / Hz"	"Sound Pressure Level / dB (re 20 µPa/V)  [2.83  V @ 1. m]"	"Frequency / Hz"	"Sound Pressure Level / dB (re 20 µPa/V)  [2.83  V @ 1. m]"
20.5078	69.3377	20.5078	69.3049	20.5078	69.3308	20.5078	69.2404	20.5078	69.2771	20.5078	69.1518	20.5078	69.174	20.5078	69.0455	20.5078	69.0281	20.5078	68.9269	20.5078	68.8616	20.5078	68.8008	20.5078	68.7118	20.5078	68.6711	20.5078	68.6196	20.5078	68.5411	20.5078	68.6041	20.5078	68.4136	20.5078	68.6426	20.5078	68.2906	20.5078	68.6766	20.5078	68.1735	20.5078	68.6442	20.5078	68.0624	20.5078	68.5109	20.5078	67.9568	20.5078	68.285	20.5078	67.8552	20.5078	68.0144	20.5078	67.7564	20.5078	67.7651	20.5078	67.6615	20.5078	67.5917	20.5078	67.577	20.5078	67.5142	20.5078	67.519
21.9727	60.2217	21.9727	60.7512	21.9727	59.77	21.9727	61.1742	21.9727	59.8273	21.9727	61.444	21.9727	60.8673	21.9727	61.5614	21.9727	62.7982	21.9727	61.5375	21.9727	65.0589	21.9727	61.3802	21.9727	67.2147	21.9727	61.0905	21.9727	69.0704	21.9727	60.66	21.9727	70.554	21.9727	60.0694	21.9727	71.6391	21.9727	59.286	21.9727	72.316	21.9727	58.263	21.9727	72.5819	21.9727	56.952	21.9727	72.4382	21.9727	55.3913	21.9727	71.8895	21.9727	54.0909	21.9727	70.9424	21.9727	54.5227	21.9727	69.6031	21.9727	57.1001	21.9727	67.8747	21.9727	60.2844	21.9727	65.7524	21.9727	63.2223
23.4375	67.4882	23.4375	68.0378	23.4375	66.7095	23.4375	68.4127	23.4375	65.6315	23.4375	68.6526	23.4375	64.1871	23.4375	68.7856	23.4375	62.4265	23.4375	68.831	23.4375	60.9587	23.4375	68.8013	23.4375	61.2295	23.4375	68.7039	23.4375	63.2319	23.4375	68.5415	23.4375	65.4383	23.4375	68.3125	23.4375	67.1411	23.4375	68.0098	23.4375	68.2149	23.4375	67.6201	23.4375	68.6627	23.4375	67.121	23.4375	68.4941	23.4375	66.4772	23.4375	67.7009	23.4375	65.6347	23.4375	66.2524	23.4375	64.5146	23.4375	64.114	23.4375	63.0156	23.4375	61.3941	23.4375	61.0849	23.4375	59.0483	23.4375	59.1544
24.9023	67.6101	24.9023	68.2816	24.9023	66.6362	24.9023	68.7361	24.9023	65.221	24.9023	69.0286	24.9023	63.1238	24.9023	69.1959	24.9023	59.9288	24.9023	69.2624	24.9023	55.6397	24.9023	69.2444	24.9023	56.3984	24.9023	69.1518	24.9023	61.1816	24.9023	68.9888	24.9023	64.601	24.9023	68.7548	24.9023	66.7792	24.9023	68.4431	24.9023	68.0402	24.9023	68.0401	24.9023	68.5419	24.9023	67.5217	24.9023	68.3459	24.9023	66.8485	24.9023	67.4499	24.9023	65.9574	24.9023	65.7905	24.9023	64.7465	24.9023	63.2272	24.9023	63.0519	24.9023	59.6232	24.9023	60.6302	24.9023	56.205	24.9023	57.4477
26.3672	63.4606	26.3672	64.7408	26.3672	61.5861	26.3672	65.605	26.3672	59.0074	26.3672	66.1724	26.3672	57.0694	26.3672	66.5178	26.3672	59.4469	26.3672	66.6879	26.3672	63.4946	26.3672	66.7109	26.3672	66.8335	26.3672	66.6019	26.3672	69.3684	26.3672	66.3648	26.3672	71.2407	26.3672	65.9929	26.3672	72.5436	26.3672	65.4659	26.3672	73.3268	26.3672	64.7446	26.3672	73.6135	26.3672	63.7569	26.3672	73.4114	26.3672	62.3694	26.3672	72.7161	26.3672	60.3143	26.3672	71.5082	26.3672	56.9719	26.3672	69.7429	26.3672	50.8632	26.3672	67.3219	26.3672	51.6806	26.3672	64.0224	26.3672	59.2807
27.832	68.5381	27.832	69.118	27.832	67.8444	27.832	69.5575	27.832	67.1586	27.832	69.8636	27.832	66.7879	27.832	70.0515	27.832	67.1656	27.832	70.1355	27.832	68.4091	27.832	70.1268	27.832	70.1242	27.832	70.032	27.832	71.8505	27.832	69.854	27.832	73.3284	27.832	69.5908	27.832	74.4479	27.832	69.2363	27.832	75.1653	27.832	68.7794	27.832	75.4631	27.832	68.2051	27.832	75.3342	27.832	67.5003	27.832	74.7767	27.832	66.6726	27.832	73.7939	27.832	65.8101	27.832	72.399	27.832	65.2053	27.832	70.6332	27.832	65.3977	27.832	68.6189	27.832	66.6771
29.2969	69.318	29.2969	69.7854	29.2969	68.8379	29.2969	70.1726	29.2969	68.5058	29.2969	70.4607	29.2969	68.5856	29.2969	70.6508	29.2969	69.2963	29.2969	70.75	29.2969	70.5744	29.2969	70.7658	29.2969	72.1147	29.2969	70.7038	29.2969	73.6183	29.2969	70.5669	29.2969	74.9004	29.2969	70.3549	29.2969	75.8652	29.2969	70.0645	29.2969	76.464	29.2969	69.6893	29.2969	76.672	29.2969	69.2216	29.2969	76.4768	29.2969	68.6583	29.2969	75.8754	29.2969	68.0183	29.2969	74.8746	29.2969	67.3863	29.2969	73.4991	29.2969	66.9898	29.2969	71.8121	29.2969	67.2089	29.2969	69.9663	29.2969	68.2803
30.7617	70.5175	30.7617	70.693	30.7617	70.4687	30.7617	70.8995	30.7617	70.6789	30.7617	71.0833	30.7617	71.265	30.7617	71.2191	30.7617	72.2405	30.7617	71.2973	30.7617	73.4879	30.7617	71.3157	30.7617	74.8262	30.7617	71.2749	30.7617	76.0923	30.7617	71.1768	30.7617	77.1689	30.7617	71.0233	30.7617	77.9806	30.7617	70.8164	30.7617	78.4799	30.7617	70.5602	30.7617	78.6392	30.7617	70.2638	30.7617	78.4452	30.7617	69.9502	30.7617	77.8977	30.7617	69.6714	30.7617	77.0116	30.7617	69.5313	30.7617	75.823	30.7617	69.6928	30.7617	74.4016	30.7617	70.3173	30.7617	72.8719	30.7617	71.4309
32.2266	75.6256	32.2266	75.341	32.2266	76.0151	32.2266	75.1311	32.2266	76.5403	32.2266	74.9713	32.2266	77.2212	32.2266	74.8445	32.2266	78.0526	32.2266	74.7397	32.2266	78.995	32.2266	74.6507	32.2266	79.9775	32.2266	74.5753	32.2266	80.9125	32.2266	74.5145	32.2266	81.7131	32.2266	74.4722	32.2266	82.3059	32.2266	74.4553	32.2266	82.6373	32.2266	74.4738	32.2266	82.6765	32.2266	74.5408	32.2266	82.4159	32.2266	74.6732	32.2266	81.872	32.2266	74.8911	32.2266	81.0868	32.2266	75.2188	32.2266	80.1269	32.2266	75.6827	32.2266	79.0799	32.2266	76.3063	32.2266	78.0421	32.2266	77.099
33.6914	77.667	33.6914	77.3367	33.6914	78.0857	33.6914	77.0765	33.6914	78.6105	33.6914	76.8708	33.6914	79.2515	33.6914	76.7074	33.6914	80.0025	33.6914	76.5783	33.6914	80.8341	33.6914	76.4782	33.6914	81.6929	33.6914	76.405	33.6914	82.5087	33.6914	76.3585	33.6914	83.2071	33.6914	76.3411	33.6914	83.7214	33.6914	76.3573	33.6914	84.0008	33.6914	76.4136	33.6914	84.0153	33.6914	76.5189	33.6914	83.7578	33.6914	76.6843	33.6914	83.2457	33.6914	76.9236	33.6914	82.5212	33.6914	77.2534	33.6914	81.6496	33.6914	77.6925	33.6914	80.7126	33.6914	78.2591	33.6914	79.7942	33.6914	78.9631
35.1562	79.1372	35.1562	78.789	35.1562	79.5627	35.1562	78.5062	35.1562	80.0761	35.1562	78.2784	35.1562	80.6822	35.1562	78.0971	35.1562	81.3738	35.1562	77.9562	35.1562	82.1263	35.1562	77.8515	35.1562	82.8954	35.1562	77.7809	35.1562	83.6217	35.1562	77.7437	35.1562	84.2397	35.1562	77.741	35.1562	84.6885	35.1562	77.7754	35.1562	84.9205	35.1562	77.851	35.1562	84.9075	35.1562	77.9732	35.1562	84.6436	35.1562	78.1495	35.1562	84.1478	35.1562	78.389	35.1562	83.4636	35.1562	78.7034	35.1562	82.6559	35.1562	79.1071	35.1562	81.8026	35.1562	79.6157	35.1562	80.9788	35.1562	80.2406
36.6211	80.3875	36.6211	80.0228	36.6211	80.8197	36.6211	79.7186	36.6211	81.3253	36.6211	79.4684	36.6211	81.9056	36.6211	79.2666	36.6211	82.5525	36.6211	79.1091	36.6211	83.2445	36.6211	78.9929	36.6211	83.9439	36.6211	78.916	36.6211	84.599	36.6211	78.8777	36.6211	85.1515	36.6211	78.8782	36.6211	85.5456	36.6211	78.9186	36.6211	85.7368	36.6211	79.0013	36.6211	85.6984	36.6211	79.1298	36.6211	85.4257	36.6211	79.3087	36.6211	84.9382	36.6211	79.5446	36.6211	84.2795	36.6211	79.8464	36.6211	83.5136	36.6211	80.226	36.6211	82.7148	36.6211	80.6972	36.6211	81.9517	36.6211	81.2722
38.0859	81.6477	38.0859	81.2796	38.0859	82.0748	38.0859	80.9666	38.0859	82.5639	38.0859	80.7048	38.0859	83.114	38.0859	80.4908	38.0859	83.7169	38.0859	80.3221	38.0859	84.3533	38.0859	80.1968	38.0859	84.99	38.0859	80.1135	38.0859	85.5818	38.0859	80.0717	38.0859	86.0765	38.0859	80.0712	38.0859	86.4233	38.0859	80.1128	38.0859	86.5811	38.0859	80.1979	38.0859	86.5255	38.0859	80.3287	38.0859	86.2532	38.0859	80.5085	38.0859	85.7842	38.0859	80.7419	38.0859	85.1615	38.0859	81.0354	38.0859	84.4461	38.0859	81.3983	38.0859	83.7064	38.0859	81.8418	38.0859	83.003	38.0859	82.376
39.5508	82.5649	39.5508	82.1982	39.5508	82.9849	39.5508	81.8827	39.5508	83.4584	39.5508	81.6168	39.5508	83.983	39.5508	81.3986	39.5508	84.5501	39.5508	81.2267	39.5508	85.1417	39.5508	81.1	39.5508	85.7281	39.5508	81.0174	39.5508	86.2687	39.5508	80.9784	39.5508	86.716	39.5508	80.9825	39.5508	87.0234	39.5508	81.0298	39.5508	87.1531	39.5508	81.1207	39.5508	87.0826	39.5508	81.256	39.5508	86.8104	39.5508	81.4375	39.5508	86.3576	39.5508	81.6678	39.5508	85.7672	39.5508	81.9512	39.5508	85.0984	39.5508	82.2944	39.5508	84.4149	39.5508	82.7065	39.5508	83.7703	39.5508	83.1972
41.0156	83.2497	41.0156	82.8879	41.0156	83.6592	41.0156	82.5738	41.0156	84.1154	41.0156	82.3068	41.0156	84.6147	41.0156	82.0866	41.0156	85.1485	41.0156	81.9126	41.0156	85.7001	41.0156	81.7843	41.0156	86.2429	41.0156	81.701	41.0156	86.7401	41.0156	81.6623	41.0156	87.1489	41.0156	81.6676	41.0156	87.4264	41.0156	81.7166	41.0156	87.5381	41.0156	81.8095	41.0156	87.4639	41.0156	81.9466	41.0156	87.2035	41.0156	82.129	41.0156	86.7778	41.0156	82.3585	41.0156	86.2278	41.0156	82.6383	41.0156	85.608	41.0156	82.9735	41.0156	84.975	41.0156	83.371	41.0156	84.3755	41.0156	83.8375
42.4805	83.9624	42.4805	83.5985	42.4805	84.369	42.4805	83.2788	42.4805	84.8157	42.4805	83.0042	42.4805	85.2974	42.4805	82.7755	42.4805	85.8045	42.4805	82.593	42.4805	86.3202	42.4805	82.4569	42.4805	86.8188	42.4805	82.3669	42.4805	87.2654	42.4805	82.3225	42.4805	87.6199	42.4805	82.3228	42.4805	87.8423	42.4805	82.3668	42.4805	87.9011	42.4805	82.4534	42.4805	87.7797	42.4805	82.5817	42.4805	87.4814	42.4805	82.7508	42.4805	87.0323	42.4805	82.9605	42.4805	86.478	42.4805	83.2117	42.4805	85.8763	42.4805	83.5077	42.4805	85.2831	42.4805	83.855	42.4805	84.739	42.4805	84.2627
43.9453	84.482	43.9453	84.127	43.9453	84.8774	43.9453	83.8149	43.9453	85.3093	43.9453	83.5476	43.9453	85.7719	43.9453	83.3264	43.9453	86.2554	43.9453	83.1522	43.9453	86.7439	43.9453	83.025	43.9453	87.2135	43.9453	82.9444	43.9453	87.6325	43.9453	82.9096	43.9453	87.9637	43.9453	82.9192	43.9453	88.1703	43.9453	82.9716	43.9453	88.2228	43.9453	83.065	43.9453	88.1061	43.9453	83.1977	43.9453	87.824	43.9453	83.3681	43.9453	87.4015	43.9453	83.5753	43.9453	86.8824	43.9453	83.8196	43.9453	86.3207	43.9453	84.1036	43.9453	85.7681	43.9453	84.4329	43.9453	85.2612	43.9453	84.8162
45.4102	84.9124	45.4102	84.5475	45.4102	85.3145	45.4102	84.2233	45.4102	85.7486	45.4102	83.9431	45.4102	86.2082	45.4102	83.7094	45.4102	86.6828	45.4102	83.524	45.4102	87.1568	45.4102	83.3877	45.4102	87.6071	45.4102	83.3006	45.4102	88.0034	45.4102	83.2621	45.4102	88.3106	45.4102	83.2705	45.4102	88.4939	45.4102	83.3239	45.4102	88.526	45.4102	83.4199	45.4102	88.3932	45.4102	83.5558	45.4102	88.101	45.4102	83.7293	45.4102	87.6756	45.4102	83.9383	45.4102	87.1612	45.4102	84.1822	45.4102	86.6111	45.4102	84.4626	45.4102	86.0747	45.4102	84.7844	45.4102	85.5851	45.4102	85.1557
46.875	85.4043	46.875	85.0379	46.875	85.8035	46.875	84.7088	46.875	86.23	46.875	84.4208	46.875	86.6767	46.875	84.1771	46.875	87.1331	46.875	83.9802	46.875	87.5838	46.875	83.8316	46.875	88.007	46.875	83.7319	46.875	88.3741	46.875	83.6808	46.875	88.6521	46.875	83.6771	46.875	88.8086	46.875	83.7191	46.875	88.818	46.875	83.8043	46.875	88.6686	46.875	83.9301	46.875	88.3667	46.875	84.094	46.875	87.9391	46.875	84.2938	46.875	87.4292	46.875	84.5286	46.875	86.8888	46.875	84.7997	46.875	86.365	46.875	85.1116	46.875	85.8888	46.875	85.4718
48.3398	85.8719	48.3398	85.5061	48.3398	86.2673	48.3398	85.1751	48.3398	86.6864	48.3398	84.8833	48.3398	87.1214	48.3398	84.6343	48.3398	87.5618	48.3398	84.4312	48.3398	87.9923	48.3398	84.2758	48.3398	88.3918	48.3398	84.1694	48.3398	88.7332	48.3398	84.1117	48.3398	88.9854	48.3398	84.1018	48.3398	89.118	48.3398	84.1381	48.3398	89.1078	48.3398	84.2181	48.3398	88.9449	48.3398	84.3391	48.3398	88.6372	48.3398	84.4983	48.3398	88.2123	48.3398	84.6931	48.3398	87.7136	48.3398	84.9221	48.3398	87.1908	48.3398	85.1856	48.3398	86.6879	48.3398	85.4871	48.3398	86.2324	48.3398	85.8334
51.2695	87.1235	51.2695	86.7589	51.2695	87.5172	51.2695	86.4286	51.2695	87.9339	51.2695	86.1371	51.2695	88.3662	51.2695	85.8879	51.2695	88.8043	51.2695	85.684	51.2695	89.234	51.2695	85.5275	51.2695	89.6358	51.2695	85.4196	51.2695	89.9829	51.2695	85.3605	51.2695	90.2434	51.2695	85.3497	51.2695	90.3846	51.2695	85.3858	51.2695	90.3802	51.2695	85.467	51.2695	90.2187	51.2695	85.591	51.2695	89.9091	51.2695	85.7552	51.2695	89.4819	51.2695	85.9573	51.2695	88.9843	51.2695	86.1953	51.2695	88.4677	51.2695	86.4684	51.2695	87.9737	51.2695	86.778	51.2695	87.5254	51.2695	87.1283
52.7344	87.388	52.7344	87.0264	52.7344	87.7787	52.7344	86.6995	52.7344	88.1916	52.7344	86.4124	52.7344	88.6188	52.7344	86.1692	52.7344	89.05	52.7344	85.9728	52.7344	89.4712	52.7344	85.8255	52.7344	89.8631	52.7344	85.7281	52.7344	90.1997	52.7344	85.6805	52.7344	90.4503	52.7344	85.6818	52.7344	90.5836	52.7344	85.7299	52.7344	90.5754	52.7344	85.8225	52.7344	90.4158	52.7344	85.9565	52.7344	90.1155	52.7344	86.1287	52.7344	89.7056	52.7344	86.336	52.7344	89.2326	52.7344	86.5755	52.7344	88.7451	52.7344	86.8457	52.7344	88.2809	52.7344	87.147	52.7344	87.8591	52.7344	87.4828
54.1992	87.6664	54.1992	87.3031	54.1992	88.0576	54.1992	86.9742	54.1992	88.4691	54.1992	86.6853	54.1992	88.8921	54.1992	86.4413	54.1992	89.3155	54.1992	86.2454	54.1992	89.725	54.1992	86.0999	54.1992	90.1012	54.1992	86.0057	54.1992	90.4189	54.1992	85.9625	54.1992	90.6492	54.1992	85.9687	54.1992	90.763	54.1992	86.0218	54.1992	90.7388	54.1992	86.1186	54.1992	90.5696	54.1992	86.2554	54.1992	90.2681	54.1992	86.4284	54.1992	89.8666	54.1992	86.6339	54.1992	89.4102	54.1992	86.869	54.1992	88.9448	54.1992	87.132	54.1992	88.5039	54.1992	87.4229	54.1992	88.1034	54.1992	87.7448
55.6641	87.9714	55.6641	87.6021	55.6641	88.3661	55.6641	87.2654	55.6641	88.7779	55.6641	86.968	55.6641	89.1971	55.6641	86.7152	55.6641	89.6121	55.6641	86.5112	55.6641	90.0081	55.6641	86.3587	55.6641	90.366	55.6641	86.259	55.6641	90.6613	55.6641	86.2118	55.6641	90.8663	55.6641	86.2155	55.6641	90.9543	55.6641	86.2674	55.6641	90.9062	55.6641	86.3639	55.6641	90.7178	55.6641	86.5009	55.6641	90.4049	55.6641	86.6743	55.6641	90.0023	55.6641	86.88	55.6641	89.556	55.6641	87.1143	55.6641	89.1094	55.6641	87.3747	55.6641	88.6914	55.6641	87.6597	55.6641	88.3126	55.6641	87.9708
58.5938	88.4641	58.5938	88.0957	58.5938	88.8549	58.5938	87.7577	58.5938	89.2591	58.5938	87.4574	58.5938	89.6668	58.5938	87.2007	58.5938	90.066	58.5938	86.9925	58.5938	90.4424	58.5938	86.836	58.5938	90.7777	58.5938	86.7331	58.5938	91.0491	58.5938	86.684	58.5938	91.2311	58.5938	86.6873	58.5938	91.2992	58.5938	86.7403	58.5938	91.2365	58.5938	86.8394	58.5938	91.0405	58.5938	86.98	58.5938	90.7283	58.5938	87.157	58.5938	90.3352	58.5938	87.3652	58.5938	89.9066	58.5938	87.5993	58.5938	89.4841	58.5938	87.8549	58.5938	89.0935	58.5938	88.1292	58.5938	88.7417	58.5938	88.423
60.0586	88.6344	60.0586	88.2572	60.0586	89.0316	60.0586	87.9093	60.0586	89.4392	60.0586	87.599	60.0586	89.8463	60.0586	87.3335	60.0586	90.2408	60.0586	87.1188	60.0586	90.6084	60.0586	86.9589	60.0586	90.9312	60.0586	86.8559	60.0586	91.1873	60.0586	86.8099	60.0586	91.3524	60.0586	86.8192	60.0586	91.4036	60.0586	86.8802	60.0586	91.3258	60.0586	86.988	60.0586	91.1182	60.0586	87.1368	60.0586	90.7995	60.0586	87.3203	60.0586	90.4062	60.0586	87.5318	60.0586	89.9838	60.0586	87.7652	60.0586	89.5731	60.0586	88.0155	60.0586	89.1981	60.0586	88.2801	60.0586	88.8631	60.0586	88.5605
62.9883	89.0604	62.9883	88.6851	62.9883	89.4524	62.9883	88.3354	62.9883	89.8512	62.9883	88.0194	62.9883	90.2461	62.9883	87.7444	62.9883	90.6249	62.9883	87.5166	62.9883	90.9733	62.9883	87.3403	62.9883	91.2736	62.9883	87.2187	62.9883	91.5052	62.9883	87.1526	62.9883	91.6453	62.9883	87.1414	62.9883	91.6732	62.9883	87.1823	62.9883	91.5763	62.9883	87.2715	62.9883	91.356	62.9883	87.4039	62.9883	91.0321	62.9883	87.5738	62.9883	90.6405	62.9883	87.7753	62.9883	90.2242	62.9883	88.0029	62.9883	89.8197	62.9883	88.2518	62.9883	89.4474	62.9883	88.5188	62.9883	89.1109	62.9883	88.8038
64.4531	89.2223	64.4531	88.8453	64.4531	89.6153	64.4531	88.4938	64.4531	90.0142	64.4531	88.1766	64.4531	90.4075	64.4531	87.9012	64.4531	90.7829	64.4531	87.674	64.4531	91.1257	64.4531	87.4996	64.4531	91.4187	64.4531	87.381	64.4531	91.6415	64.4531	87.3191	64.4531	91.7724	64.4531	87.3129	64.4531	91.7922	64.4531	87.3597	64.4531	91.6896	64.4531	87.4552	64.4531	91.4682	64.4531	87.5941	64.4531	91.149	64.4531	87.7704	64.4531	90.7684	64.4531	87.9777	64.4531	90.3684	64.4531	88.2099	64.4531	89.9828	64.4531	88.4613	64.4531	89.6286	64.4531	88.728	64.4531	89.3064	64.4531	89.0086
67.3828	89.5773	67.3828	89.1941	67.3828	89.9734	67.3828	88.834	67.3828	90.371	67.3828	88.5068	67.3828	90.7586	67.3828	88.2211	67.3828	91.1232	67.3828	87.9842	67.3828	91.4501	67.3828	87.8019	67.3828	91.7224	67.3828	87.6778	67.3828	91.9209	67.3828	87.6132	67.3828	92.0255	67.3828	87.6073	67.3828	92.019	67.3828	87.657	67.3828	91.8933	67.3828	87.7575	67.3828	91.655	67.3828	87.9025	67.3828	91.3282	67.3828	88.0848	67.3828	90.9514	67.3828	88.2968	67.3828	90.5665	67.3828	88.5307	67.3828	90.2044	67.3828	88.7795	67.3828	89.8772	67.3828	89.0378	67.3828	89.5806	67.3828	89.3038
68.8477	89.703	68.8477	89.3178	68.8477	90.0994	68.8477	88.9545	68.8477	90.4956	68.8477	88.6232	68.8477	90.8795	68.8477	88.3329	68.8477	91.2382	68.8477	88.0915	68.8477	91.5569	68.8477	87.9049	68.8477	91.8191	68.8477	87.7772	68.8477	92.006	68.8477	87.7098	68.8477	92.0982	68.8477	87.7021	68.8477	92.0798	68.8477	87.751	68.8477	91.9437	68.8477	87.8513	68.8477	91.6977	68.8477	87.9966	68.8477	91.3673	68.8477	88.1791	68.8477	90.9914	68.8477	88.3908	68.8477	90.6115	68.8477	88.6234	68.8477	90.2575	68.8477	88.8696	68.8477	89.9397	68.8477	89.1236	68.8477	89.6523	68.8477	89.3834
71.7773	89.9637	71.7773	89.5774	71.7773	90.358	71.7773	89.2104	71.7773	90.7484	71.7773	88.8731	71.7773	91.1226	71.7773	88.5754	71.7773	91.4674	71.7773	88.3254	71.7773	91.7682	71.7773	88.1296	71.7773	92.0088	71.7773	87.9924	71.7773	92.1714	71.7773	87.9158	71.7773	92.2381	71.7773	87.8992	71.7773	92.1948	71.7773	87.9396	71.7773	92.0369	71.7773	88.0319	71.7773	91.7745	71.7773	88.1695	71.7773	91.435	71.7773	88.3445	71.7773	91.0583	71.7773	88.5484	71.7773	90.685	71.7773	88.7729	71.7773	90.3422	71.7773	89.0105	71.7773	90.0373	71.7773	89.2553	71.7773	89.7625	71.7773	89.5049
74.707	90.4395	74.707	90.038	74.707	90.8495	74.707	89.657	74.707	91.2553	74.707	89.3076	74.707	91.644	74.707	89.0003	74.707	92.0017	74.707	88.7435	74.707	92.3135	74.707	88.5442	74.707	92.5628	74.707	88.4067	74.707	92.7313	74.707	88.3328	74.707	92.8006	74.707	88.3215	74.707	92.7558	74.707	88.3693	74.707	92.5919	74.707	88.4707	74.707	92.3207	74.707	88.6186	74.707	91.9731	74.707	88.805	74.707	91.593	74.707	89.0214	74.707	91.222	74.707	89.2597	74.707	90.8843	74.707	89.5121	74.707	90.5819	74.707	89.7722	74.707	90.3034	74.707	90.0358
77.6367	90.5991	77.6367	90.1904	77.6367	91.0146	77.6367	89.8014	77.6367	91.4235	77.6367	89.4443	77.6367	91.812	77.6367	89.1302	77.6367	92.1658	77.6367	88.8687	77.6367	92.4698	77.6367	88.6672	77.6367	92.7074	77.6367	88.5304	77.6367	92.861	77.6367	88.4601	77.6367	92.9135	77.6367	88.4551	77.6367	92.8521	77.6367	88.5114	77.6367	92.6747	77.6367	88.6227	77.6367	92.3964	77.6367	88.7812	77.6367	92.0508	77.6367	88.9777	77.6367	91.6828	77.6367	89.2031	77.6367	91.3319	77.6367	89.4481	77.6367	91.0178	77.6367	89.704	77.6367	90.7378	77.6367	89.9634	77.6367	90.4769	77.6367	90.2211
79.1016	90.6565	79.1016	90.2442	79.1016	91.0744	79.1016	89.8508	79.1016	91.484	79.1016	89.4888	79.1016	91.8714	79.1016	89.1698	79.1016	92.2222	79.1016	88.9039	79.1016	92.5209	79.1016	88.6987	79.1016	92.7513	79.1016	88.5594	79.1016	92.8961	79.1016	88.488	79.1016	92.9389	79.1016	88.4834	79.1016	92.868	79.1016	88.5415	79.1016	92.6829	79.1016	88.6559	79.1016	92.4001	79.1016	88.8184	79.1016	92.0547	79.1016	89.0194	79.1016	91.6918	79.1016	89.2492	79.1016	91.35	79.1016	89.4979	79.1016	91.0467	79.1016	89.7564	79.1016	90.7766	79.1016	90.0164	79.1016	90.5234	79.1016	90.2723
82.0312	90.7498	82.0312	90.327	82.0312	91.1752	82.0312	89.921	82.0312	91.5887	82.0312	89.5455	82.0312	91.9758	82.0312	89.2133	82.0312	92.3216	82.0312	88.9354	82.0312	92.6105	82.0312	88.7207	82.0312	92.8264	82.0312	88.575	82.0312	92.9527	82.0312	88.5009	82.0312	92.9739	82.0312	88.4972	82.0312	92.8803	82.0312	88.5595	82.0312	92.6738	82.0312	88.6805	82.0312	92.3737	82.0312	88.8507	82.0312	92.0178	82.0312	89.0593	82.0312	91.6532	82.0312	89.2951	82.0312	91.3184	82.0312	89.5467	82.0312	91.0287	82.0312	89.8039	82.0312	90.7756	82.0312	90.0579	82.0312	90.5394	82.0312	90.303
84.9609	90.8428	84.9609	90.412	84.9609	91.2735	84.9609	89.9958	84.9609	91.6892	84.9609	89.6085	84.9609	92.0751	84.9609	89.2635	84.9609	92.4161	84.9609	88.9728	84.9609	92.6972	84.9609	88.7462	84.9609	92.9026	84.9609	88.5903	84.9609	93.017	84.9609	88.5085	84.9609	93.0267	84.9609	88.5	84.9609	92.9238	84.9609	88.5607	84.9609	92.7119	84.9609	88.683	84.9609	92.4115	84.9609	88.8569	84.9609	92.0601	84.9609	89.0709	84.9609	91.7023	84.9609	89.3129	84.9609	91.3734	84.9609	89.5712	84.9609	91.0861	84.9609	89.8351	84.9609	90.8312	84.9609	90.0957	84.9609	90.5903	84.9609	90.3476
87.8906	90.9538	87.8906	90.5182	87.8906	91.3854	87.8906	90.0938	87.8906	91.7981	87.8906	89.6956	87.8906	92.1769	87.8906	89.3378	87.8906	92.5071	87.8906	89.0332	87.8906	92.7739	87.8906	88.7924	87.8906	92.9623	87.8906	88.623	87.8906	93.0575	87.8906	88.5289	87.8906	93.0468	87.8906	88.51	87.8906	92.9238	87.8906	88.5622	87.8906	92.6945	87.8906	88.6781	87.8906	92.3822	87.8906	88.8476	87.8906	92.0263	87.8906	89.0589	87.8906	91.6714	87.8906	89.2996	87.8906	91.3499	87.8906	89.5576	87.8906	91.0703	87.8906	89.8222	87.8906	90.8204	87.8906	90.0843	87.8906	90.581	87.8906	90.3377
90.8203	90.8138	90.8203	90.3766	90.8203	91.248	90.8203	89.952	90.8203	91.6633	90.8203	89.5556	90.8203	92.0443	90.8203	89.2022	90.8203	92.3757	90.8203	88.9051	90.8203	92.6423	90.8203	88.6751	90.8203	92.8289	90.8203	88.5194	90.8203	92.9215	90.8203	88.4417	90.8203	92.9089	90.8203	88.4411	90.8203	92.7872	90.8203	88.5127	90.8203	92.5657	90.8203	88.6482	90.8203	92.2706	90.8203	88.8366	90.8203	91.9425	90.8203	89.0658	90.8203	91.6235	90.8203	89.3228	90.8203	91.34	90.8203	89.5953	90.8203	91.0934	90.8203	89.872	90.8203	90.8669	90.8203	90.1427	90.8203	90.6401	90.8203	90.3999
95.2148	90.9462	95.2148	90.4894	95.2148	91.3927	95.2148	90.0395	95.2148	91.8119	95.2148	89.6135	95.2148	92.1873	95.2148	89.228	95.2148	92.5028	95.2148	88.8978	95.2148	92.7425	95.2148	88.6355	95.2148	92.8912	95.2148	88.4505	95.2148	92.9354	95.2148	88.3476	95.2148	92.8656	95.2148	88.3269	95.2148	92.6815	95.2148	88.3841	95.2148	92.3976	95.2148	88.5105	95.2148	92.0479	95.2148	88.6942	95.2148	91.6813	95.2148	88.9214	95.2148	91.3459	95.2148	89.1775	95.2148	91.0674	95.2148	89.4479	95.2148	90.8407	95.2148	89.7192	95.2148	90.6406	95.2148	89.9799	95.2148	90.4397	95.2148	90.2212
98.1445	90.9054	98.1445	90.4325	98.1445	91.365	98.1445	89.9646	98.1445	91.7935	98.1445	89.52	98.1445	92.1739	98.1445	89.1166	98.1445	92.4898	98.1445	88.7707	98.1445	92.7254	98.1445	88.4959	98.1445	92.8658	98.1445	88.3019	98.1445	92.8979	98.1445	88.1939	98.1445	92.8133	98.1445	88.1717	98.1445	92.6126	98.1445	88.2299	98.1445	92.3119	98.1445	88.359	98.1445	91.9466	98.1445	88.546	98.1445	91.5671	98.1445	88.7762	98.1445	91.2216	98.1445	89.0342	98.1445	90.9357	98.1445	89.3052	98.1445	90.7034	98.1445	89.576	98.1445	90.4991	98.1445	89.8358	98.1445	90.2958	98.1445	90.0766
101.074	90.7526	101.074	90.256	101.074	91.231	101.074	89.7606	101.074	91.673	101.074	89.2862	101.074	92.0611	101.074	88.8528	101.074	92.3792	101.074	88.4789	101.074	92.6118	101.074	88.1805	101.074	92.7449	101.074	87.9696	101.074	92.7668	101.074	87.8524	101.074	92.6708	101.074	87.8291	101.074	92.4598	101.074	87.8937	101.074	92.1527	101.074	88.0353	101.074	91.7868	101.074	88.2391	101.074	91.4118	101.074	88.4886	101.074	91.0731	101.074	88.7669	101.074	90.791	101.074	89.0582	101.074	90.5562	101.074	89.349	101.074	90.3424	101.074	89.6281	101.074	90.1245	101.074	89.8878
105.469	91.018	105.469	90.5193	105.469	91.4876	105.469	90.0107	105.469	91.9106	105.469	89.5125	105.469	92.2704	105.469	89.0459	105.469	92.5516	105.469	88.632	105.469	92.7397	105.469	88.2903	105.469	92.8216	105.469	88.0368	105.469	92.7873	105.469	87.8818	105.469	92.6329	105.469	87.8286	105.469	92.366	105.469	87.8729	105.469	92.0126	105.469	88.0038	105.469	91.6186	105.469	88.2054	105.469	91.2413	105.469	88.459	105.469	90.9259	105.469	88.7457	105.469	90.684	105.469	89.0472	105.469	90.4923	105.469	89.3475	105.469	90.3139	105.469	89.6327	105.469	90.1186	105.469	89.892
108.398	91.1891	108.398	90.6932	108.398	91.6541	108.398	90.1849	108.398	92.0704	108.398	89.684	108.398	92.4215	108.398	89.211	108.398	92.6916	108.398	88.7868	108.398	92.8656	108.398	88.431	108.398	92.9301	108.398	88.1605	108.398	92.8748	108.398	87.9874	108.398	92.6961	108.398	87.917	108.398	92.4026	108.398	87.947	108.398	92.0226	108.398	88.0677	108.398	91.606	108.398	88.2636	108.398	91.2148	108.398	88.5153	108.398	90.8973	108.398	88.8021	108.398	90.6641	108.398	89.1041	108.398	90.4881	108.398	89.403	108.398	90.3273	108.398	89.6838	108.398	90.1482	108.398	89.9344
112.793	91.2067	112.793	90.7032	112.793	91.6787	112.793	90.1876	112.793	92.101	112.793	89.6801	112.793	92.4558	112.793	89.2017	112.793	92.7269	112.793	88.7729	112.793	92.8987	112.793	88.4134	112.793	92.9576	112.793	88.14	112.793	92.8934	112.793	87.9649	112.793	92.7027	112.793	87.8939	112.793	92.3955	112.793	87.925	112.793	92.0019	112.793	88.0489	112.793	91.5756	112.793	88.2498	112.793	91.1816	112.793	88.5077	112.793	90.8695	112.793	88.8011	112.793	90.6471	112.793	89.1089	112.793	90.4828	112.793	89.4123	112.793	90.3312	112.793	89.6955	112.793	90.1577	112.793	89.9464
117.188	91.0644	117.188	90.5514	117.188	91.5439	117.188	90.0259	117.188	91.9704	117.188	89.5094	117.188	92.3256	117.188	89.0242	117.188	92.5922	117.188	88.592	117.188	92.7543	117.188	88.2327	117.188	92.7981	117.188	87.9633	117.188	92.7139	117.188	87.7953	117.188	92.4995	117.188	87.7339	117.188	92.1678	117.188	87.7764	117.188	91.7543	117.188	87.9127	117.188	91.3195	117.188	88.1264	117.188	90.935	117.188	88.3971	117.188	90.6507	117.188	88.7024	117.188	90.4671	117.188	89.0206	117.188	90.3417	117.188	89.3316	117.188	90.2212	117.188	89.6184	117.188	90.0681	117.188	89.867
120.117	91.1748	120.117	90.6459	120.117	91.6669	120.117	90.1019	120.117	92.1019	120.117	89.5662	120.117	92.461	120.117	89.0627	120.117	92.727	120.117	88.6151	120.117	92.8842	120.117	88.2456	120.117	92.9192	120.117	87.972	120.117	92.8228	120.117	87.8064	120.117	92.5935	120.117	87.7532	120.117	92.245	120.117	87.8086	120.117	91.8141	120.117	87.9605	120.117	91.3641	120.117	88.1909	120.117	90.9705	120.117	88.4775	120.117	90.6867	120.117	88.7967	120.117	90.5132	120.117	89.1253	120.117	90.4037	120.117	89.4422	120.117	90.3007	120.117	89.7295	120.117	90.1629	120.117	89.9727
124.512	91.2869	124.512	90.7444	124.512	91.7889	124.512	90.1837	124.512	92.23	124.512	89.6286	124.512	92.5913	124.512	89.1042	124.512	92.8552	124.512	88.6362	124.512	93.0061	124.512	88.2489	124.512	93.0306	124.512	87.9636	124.512	92.9193	124.512	87.7952	124.512	92.6717	124.512	87.7498	124.512	92.3032	124.512	87.8234	124.512	91.8552	124.512	88.002	124.512	91.3978	124.512	88.2637	124.512	91.0128	124.512	88.582	124.512	90.7533	124.512	88.9295	124.512	90.612	124.512	89.2801	124.512	90.5331	124.512	89.6116	124.512	90.4534	124.512	89.9056	124.512	90.3308	124.512	90.1482
128.906	91.2374	128.906	90.6685	128.906	91.7634	128.906	90.0801	128.906	92.2249	128.906	89.4974	128.906	92.6019	128.906	88.9467	128.906	92.8761	128.906	88.4547	128.906	93.0306	128.906	88.0471	128.906	93.0508	128.906	87.7459	128.906	92.9259	128.906	87.5671	128.906	92.6536	128.906	87.5177	128.906	92.2484	128.906	87.5938	128.906	91.7526	128.906	87.7812	128.906	91.2434	128.906	88.0569	128.906	90.8157	128.906	88.3927	128.906	90.5358	128.906	88.7587	128.906	90.3991	128.906	89.1266	128.906	90.3411	128.906	89.4712	128.906	90.2862	128.906	89.7718	128.906	90.1837	128.906	90.0125
133.301	91.121	133.301	90.5175	133.301	91.679	133.301	89.8937	133.301	92.1688	133.301	89.2767	133.301	92.5697	133.301	88.6957	133.301	92.8631	133.301	88.1805	133.301	93.0319	133.301	87.7596	133.301	93.0616	133.301	87.4573	133.301	92.9413	133.301	87.29	133.301	92.6685	133.301	87.2634	133.301	92.2571	133.301	87.3708	133.301	91.7492	133.301	87.594	133.301	91.2234	133.301	87.9058	133.301	90.778	133.301	88.2743	133.301	90.4839	133.301	88.667	133.301	90.3393	133.301	89.054	133.301	90.2788	133.301	89.41	133.301	90.2249	133.301	89.7154	133.301	90.1249	133.301	89.9561
139.16	90.8329	139.16	90.1805	139.16	91.4349	139.16	89.5035	139.16	91.9633	139.16	88.8311	139.16	92.3974	139.16	88.1951	139.16	92.7189	139.16	87.6292	139.16	92.9117	139.16	87.1674	139.16	92.962	139.16	86.84	139.16	92.8596	139.16	86.6689	139.16	92.6012	139.16	86.6625	139.16	92.1981	139.16	86.8129	139.16	91.6892	139.16	87.0964	139.16	91.1504	139.16	87.4783	139.16	90.6834	139.16	87.9186	139.16	90.3683	139.16	88.3783	139.16	90.2116	139.16	88.8228	139.16	90.149	139.16	89.2241	139.16	90.0975	139.16	89.5613	139.16	89.9976	139.16	89.821
143.555	90.5081	143.555	89.7918	143.555	91.1698	143.555	89.0484	143.555	91.753	143.555	88.3096	143.555	92.2366	143.555	87.6108	143.555	92.6027	143.555	86.9906	143.555	92.8351	143.555	86.4882	143.555	92.9202	143.555	86.1391	143.555	92.8469	143.555	85.9684	143.555	92.6105	143.555	85.9851	143.555	92.2207	143.555	86.1784	143.555	91.7151	143.555	86.5191	143.555	91.1713	143.555	86.9663	143.555	90.6939	143.555	87.4743	143.555	90.3652	143.555	87.9999	143.555	90.1899	143.555	88.5058	143.555	90.1011	143.555	88.9629	143.555	90.0158	143.555	89.3508	143.555	89.8764	143.555	89.6568
147.949	90.1224	147.949	89.3134	147.949	90.8691	147.949	88.4699	147.949	91.5302	147.949	87.6249	147.949	92.0857	147.949	86.8175	147.949	92.5183	147.949	86.0932	147.949	92.813	147.949	85.5021	147.949	92.9562	147.949	85.0932	147.949	92.9364	147.949	84.9041	147.949	92.7464	147.949	84.9496	147.949	92.3918	147.949	85.2149	147.949	91.905	147.949	85.6585	147.949	91.3587	147.949	86.2238	147.949	90.857	147.949	86.8518	147.949	90.4874	147.949	87.4903	147.949	90.2626	147.949	88.0977	147.949	90.1202	147.949	88.6447	147.949	89.9774	147.949	89.1123	147.949	89.7764	147.949	89.4904
153.809	89.8092	153.809	88.9064	153.809	90.6418	153.809	87.9567	153.809	91.3839	153.809	86.9886	153.809	92.0185	153.809	86.0373	153.809	92.5306	153.809	85.1475	153.809	92.9066	153.809	84.3757	153.809	93.1333	153.809	83.7902	153.809	93.1977	153.809	83.4609	153.809	93.0892	153.809	83.4379	153.809	92.8073	153.809	83.7268	153.809	92.3761	153.809	84.2812	153.809	91.8596	153.809	85.0195	153.809	91.3557	153.809	85.8535	153.809	90.9528	153.809	86.7076	153.809	90.6701	153.809	87.526	153.809	90.4503	153.809	88.2716	153.809	90.2107	153.809	88.9216	153.809	89.8908	153.809	89.463
159.668	89.2032	159.668	88.2547	159.668	90.0828	159.668	87.2566	159.668	90.8762	159.668	86.2306	159.668	91.5676	159.668	85.2018	159.668	92.1429	159.668	84.2014	159.668	92.5887	159.668	83.2727	159.668	92.8912	159.668	82.4797	159.668	93.0357	159.668	81.9137	159.668	93.0094	159.668	81.6832	159.668	92.8092	159.668	81.8685	159.668	92.4562	159.668	82.4655	159.668	92.0089	159.668	83.3753	159.668	91.5563	159.668	84.4576	159.668	91.1751	159.668	85.587	159.668	90.8774	159.668	86.6754	159.668	90.6059	159.668	87.6689	159.668	90.2808	159.668	88.537	159.668	89.8428	159.668	89.2637
165.527	89.3231	165.527	88.5098	165.527	90.0789	165.527	87.6555	165.527	90.7613	165.527	86.7758	165.527	91.3547	165.527	85.8857	165.527	91.8447	165.527	84.9991	165.527	92.2171	165.527	84.1316	165.527	92.4574	165.527	83.3061	165.527	92.5502	165.527	82.5643	165.527	92.4825	165.527	81.9815	165.527	92.251	165.527	81.6708	165.527	91.8746	165.527	81.7499	165.527	91.405	165.527	82.2646	165.527	90.9177	165.527	83.1378	165.527	90.4781	165.527	84.2135	165.527	90.0994	165.527	85.3389	165.527	89.738	165.527	86.4067	165.527	89.3274	165.527	87.356	165.527	88.8123	165.527	88.1595
171.387	89.5423	171.387	88.7948	171.387	90.2296	171.387	88.0066	171.387	90.8394	171.387	87.1992	171.387	91.3575	171.387	86.3944	171.387	91.7717	171.387	85.6132	171.387	92.0716	171.387	84.8749	171.387	92.2474	171.387	84.1983	171.387	92.2889	171.387	83.6066	171.387	92.1887	171.387	83.1348	171.387	91.9485	171.387	82.8364	171.387	91.5899	171.387	82.7795	171.387	91.1615	171.387	83.0212	171.387	90.7271	171.387	83.5677	171.387	90.3335	171.387	84.3565	171.387	89.9781	171.387	85.2822	171.387	89.6129	171.387	86.2385	171.387	89.1778	171.387	87.1448	171.387	88.6297	171.387	87.9504
177.246	89.3534	177.246	88.6427	177.246	89.9979	177.246	87.8858	177.246	90.5589	177.246	87.1049	177.246	91.0221	177.246	86.3231	177.246	91.3758	177.246	85.5634	177.246	91.6111	177.246	84.8479	177.246	91.7211	177.246	84.1985	177.246	91.7011	177.246	83.6401	177.246	91.5516	177.246	83.2065	177.246	91.285	177.246	82.9446	177.246	90.9332	177.246	82.9107	177.246	90.5476	177.246	83.1489	177.246	90.1818	177.246	83.6613	177.246	89.8618	177.246	84.3932	177.246	89.5685	177.246	85.2519	177.246	89.2523	177.246	86.1409	177.246	88.8611	177.246	86.9841	177.246	88.3593	177.246	87.732
183.105	89.2159	183.105	88.5016	183.105	89.8468	183.105	87.7265	183.105	90.3758	183.105	86.9166	183.105	90.7886	183.105	86.1003	183.105	91.0749	183.105	85.3072	183.105	91.2292	183.105	84.566	183.105	91.2498	183.105	83.9042	183.105	91.1415	183.105	83.3498	183.105	90.9184	183.105	82.9352	183.105	90.6107	183.105	82.7015	183.105	90.2677	183.105	82.6951	183.105	89.9458	183.105	82.9505	183.105	89.6807	183.105	83.4648	183.105	89.4629	183.105	84.1857	183.105	89.244	183.105	85.0269	183.105	88.9668	183.105	85.8984	183.105	88.5894	183.105	86.7276	183.105	88.0909	183.105	87.4671
188.965	89.8586	188.965	89.1682	188.965	90.446	188.965	88.3976	188.965	90.9116	188.965	87.5728	188.965	91.2402	188.965	86.7225	188.965	91.4202	188.965	85.8767	188.965	91.4445	188.965	85.0654	188.965	91.3113	188.965	84.3173	188.965	91.0281	188.965	83.6613	188.965	90.621	188.965	83.1306	188.965	90.1465	188.965	82.7686	188.965	89.6956	188.965	82.6289	188.965	89.3633	188.965	82.7617	188.965	89.184	188.965	83.1837	188.965	89.0986	188.965	83.8555	188.965	88.9986	188.965	84.6904	188.965	88.7927	188.965	85.5876	188.965	88.4353	188.965	86.4615	188.965	87.9174	188.965	87.2512
196.289	90.3475	196.289	89.6327	196.289	90.956	196.289	88.8339	196.289	91.4381	196.289	87.976	196.289	91.7765	196.289	87.0861	196.289	91.9565	196.289	86.1934	196.289	91.9656	196.289	85.3291	196.289	91.7948	196.289	84.5266	196.289	91.4406	196.289	83.8242	196.289	90.9141	196.289	83.268	196.289	90.259	196.289	82.9131	196.289	89.5714	196.289	82.8165	196.289	88.9918	196.289	83.0147	196.289	88.6329	196.289	83.4968	196.289	88.4898	196.289	84.1973	196.289	88.4474	196.289	85.0176	196.289	88.3727	196.289	85.8585	196.289	88.1781	196.289	86.6403	196.289	87.8248	196.289	87.3071
203.613	89.6744	203.613	88.9354	203.613	90.3156	203.613	88.1281	203.613	90.832	203.613	87.2841	203.613	91.2004	203.613	86.4351	203.613	91.4018	203.613	85.6113	203.613	91.4216	203.613	84.8397	203.613	91.2507	203.613	84.1434	203.613	90.8903	203.613	83.5434	203.613	90.3614	203.613	83.0639	203.613	89.7233	203.613	82.739	203.613	89.0871	203.613	82.6156	203.613	88.5885	203.613	82.7414	203.613	88.3043	203.613	83.1358	203.613	88.1897	203.613	83.7638	203.613	88.1239	203.613	84.5407	203.613	87.9989	203.613	85.3641	203.613	87.7537	203.613	86.1452	203.613	87.3631	203.613	86.8229
210.938	89.5901	210.938	88.8308	210.938	90.2452	210.938	87.9969	210.938	90.7689	210.938	87.1204	210.938	91.1374	210.938	86.2342	210.938	91.33	210.938	85.3715	210.938	91.3291	210.938	84.5637	210.938	91.1206	210.938	83.8399	210.938	90.6975	210.938	83.226	210.938	90.0728	210.938	82.7482	210.938	89.3098	210.938	82.438	210.938	88.5577	210.938	82.3365	210.938	88.0321	210.938	82.4866	210.938	87.8651	210.938	82.9095	210.938	87.9643	210.938	83.5776	210.938	88.1088	210.938	84.412	210.938	88.1248	210.938	85.3095	210.938	87.9359	210.938	86.1742	210.938	87.5316	210.938	86.9323
218.262	89.5457	218.262	88.7591	218.262	90.2198	218.262	87.8955	218.262	90.7515	218.262	86.9951	218.262	91.1165	218.262	86.0997	218.262	91.2954	218.262	85.2486	218.262	91.2726	218.262	84.4752	218.262	91.0366	218.262	83.8042	218.262	90.5825	218.262	83.2528	218.262	89.9216	218.262	82.8356	218.262	89.1028	218.262	82.5721	218.262	88.2393	218.262	82.4917	218.262	87.507	218.262	82.6291	218.262	87.0622	218.262	83.0042	218.262	86.9216	218.262	83.5957	218.262	86.9612	218.262	84.3321	218.262	87.0247	218.262	85.1108	218.262	86.9938	218.262	85.8289	218.262	86.7978	218.262	86.4066
225.586	89.6944	225.586	88.8738	225.586	90.3864	225.586	87.9581	225.586	90.9226	225.586	86.9874	225.586	91.2815	225.586	86.0082	225.586	91.446	225.586	85.0699	225.586	91.4036	225.586	84.2203	225.586	91.1463	225.586	83.5005	225.586	90.6739	225.586	82.9416	225.586	90.0054	225.586	82.5677	225.586	89.2037	225.586	82.4017	225.586	88.4082	225.586	82.4685	225.586	87.8191	225.586	82.7856	225.586	87.5707	225.586	83.3426	225.586	87.6045	225.586	84.0857	225.586	87.7376	225.586	84.9247	225.586	87.8143	225.586	85.7596	225.586	87.753	225.586	86.5045	225.586	87.5192	225.586	87.101
232.91	89.7147	232.91	88.8908	232.91	90.4	232.91	87.9624	232.91	90.9177	232.91	86.9683	232.91	91.2437	232.91	85.9508	232.91	91.3589	232.91	84.9543	232.91	91.2478	232.91	84.023	232.91	90.899	232.91	83.1978	232.91	90.3076	232.91	82.5143	232.91	89.4885	232.91	82.0049	232.91	88.5078	232.91	81.7022	232.91	87.5232	232.91	81.6424	232.91	86.7676	232.91	81.8554	232.91	86.3991	232.91	82.3409	232.91	86.359	232.91	83.0464	232.91	86.4617	232.91	83.8726	232.91	86.5529	232.91	84.7032	232.91	86.5412	232.91	85.4365	232.91	86.3692	232.91	86.0025
241.699	89.5377	241.699	88.6493	241.699	90.2894	241.699	87.6659	241.699	90.871	241.699	86.6356	241.699	91.2572	241.699	85.6085	241.699	91.4299	241.699	84.632	241.699	91.3763	241.699	83.747	241.699	91.0872	241.699	82.9871	241.699	90.5572	241.699	82.3827	241.699	89.7924	241.699	81.9678	241.699	88.8322	241.699	81.7831	241.699	87.7874	241.699	81.8675	241.699	86.8678	241.699	82.2353	241.699	86.3069	241.699	82.8518	241.699	86.1745	241.699	83.6313	241.699	86.3176	241.699	84.4625	241.699	86.5222	241.699	85.24	241.699	86.6394	241.699	85.8829	241.699	86.5905	241.699	86.3402
250.488	89.0947	250.488	88.1521	250.488	89.851	250.488	87.0559	250.488	90.3976	250.488	85.8518	250.488	90.7173	250.488	84.6018	250.488	90.7984	250.488	83.3837	250.488	90.6352	250.488	82.2817	250.488	90.2321	250.488	81.3677	250.488	89.6129	250.488	80.6864	250.488	88.838	250.488	80.2597	250.488	88.0269	250.488	80.1121	250.488	87.3468	250.488	80.2869	250.488	86.9197	250.488	80.8187	250.488	86.717	250.488	81.6718	250.488	86.6099	250.488	82.7179	250.488	86.5114	250.488	83.7868	250.488	86.4178	250.488	84.7321	250.488	86.3347	250.488	85.4618	250.488	86.2089	250.488	85.9446
259.277	90.0383	259.277	89.0955	259.277	90.8007	259.277	88.0085	259.277	91.3491	259.277	86.8154	259.277	91.6548	259.277	85.5551	259.277	91.6928	259.277	84.2679	259.277	91.4404	259.277	82.9965	259.277	90.8745	259.277	81.7857	259.277	89.9738	259.277	80.6834	259.277	88.7401	259.277	79.7471	259.277	87.2732	259.277	79.0617	259.277	85.9155	259.277	78.7584	259.277	85.221	259.277	78.98	259.277	85.3404	259.277	79.7582	259.277	85.7953	259.277	80.9336	259.277	86.1534	259.277	82.2513	259.277	86.2831	259.277	83.4981	259.277	86.1907	259.277	84.5471	259.277	85.8844	259.277	85.3442
268.066	88.61	268.066	87.4815	268.066	89.5603	268.066	86.223	268.066	90.2959	268.066	84.8957	268.066	90.7897	268.066	83.5717	268.066	91.0202	268.066	82.3274	268.066	90.968	268.066	81.2312	268.066	90.6134	268.066	80.3297	268.066	89.936	268.066	79.6408	268.066	88.9251	268.066	79.1637	268.066	87.6153	268.066	78.9044	268.066	86.1775	268.066	78.9016	268.066	85.0067	268.066	79.2198	268.066	84.5014	268.066	79.8873	268.066	84.5741	268.066	80.8307	268.066	84.8117	268.066	81.8896	268.066	84.9535	268.066	82.8964	268.066	84.9331	268.066	83.7341	268.066	84.7396	268.066	84.3489
276.855	88.4002	276.855	87.4325	276.855	89.2243	276.855	86.3668	276.855	89.8686	276.855	85.2542	276.855	90.3059	276.855	84.1427	276.855	90.5145	276.855	83.0642	276.855	90.4754	276.855	82.0235	276.855	90.1711	276.855	80.9961	276.855	89.5883	276.855	79.9399	276.855	88.7316	276.855	78.8295	276.855	87.6601	276.855	77.7352	276.855	86.5517	276.855	76.9636	276.855	85.7048	276.855	77.0561	276.855	85.3166	276.855	78.2042	276.855	85.2617	276.855	79.9046	276.855	85.294	276.855	81.5973	276.855	85.2977	276.855	83.0089	276.855	85.25	276.855	84.0533	276.855	85.0961	276.855	84.7305
287.109	88.9694	287.109	87.9886	287.109	89.7738	287.109	86.874	287.109	90.371	287.109	85.6862	287.109	90.7368	287.109	84.5041	287.109	90.8512	287.109	83.4156	287.109	90.6973	287.109	82.4893	287.109	90.2644	287.109	81.7403	287.109	89.552	287.109	81.1121	287.109	88.5857	287.109	80.4956	287.109	87.4591	287.109	79.7716	287.109	86.398	287.109	78.8781	287.109	85.7031	287.109	77.9537	287.109	85.4477	287.109	77.5594	287.109	85.3837	287.109	78.3668	287.109	85.2914	287.109	80.0911	287.109	85.1601	287.109	81.9005	287.109	85.0276	287.109	83.3374	287.109	84.7996	287.109	84.2871
297.363	90.0324	297.363	89.0024	297.363	90.8589	297.363	87.7941	297.363	91.4651	297.363	86.4506	297.363	91.8373	297.363	85.0474	297.363	91.9629	297.363	83.7002	297.363	91.8297	297.363	82.5457	297.363	91.4221	297.363	81.6762	297.363	90.7157	297.363	81.0684	297.363	89.6816	297.363	80.5835	297.363	88.3409	297.363	80.0316	297.363	86.9279	297.363	79.2274	297.363	86.0096	297.363	78.018	297.363	85.9053	297.363	76.3692	297.363	86.0764	297.363	74.7517	297.363	85.8791	297.363	74.6249	297.363	85.0923	297.363	76.3873	297.363	83.805	297.363	78.5734	297.363	82.2319	297.363	80.5091
307.617	90.2934	307.617	89.4608	307.617	90.9297	307.617	88.4381	307.617	91.368	307.617	87.2412	307.617	91.6096	307.617	85.9062	307.617	91.6572	307.617	84.5081	307.617	91.5107	307.617	83.1787	307.617	91.1602	307.617	82.0962	307.617	90.576	307.617	81.4095	307.617	89.7056	307.617	81.1319	307.617	88.4986	307.617	81.1299	307.617	87.0029	307.617	81.224	307.617	85.5648	307.617	81.2815	307.617	84.8258	307.617	81.2508	307.617	84.9125	307.617	81.1717	307.617	85.1787	307.617	81.1707	307.617	85.1142	307.617	81.4116	307.617	84.6126	307.617	81.9872	307.617	83.7871	307.617	82.8386
319.336	89.2199	319.336	88.2534	319.336	89.9382	319.336	87.0713	319.336	90.3873	319.336	85.7183	319.336	90.5587	319.336	84.2536	319.336	90.4543	319.336	82.7607	319.336	90.0851	319.336	81.3651	319.336	89.4703	319.336	80.2393	319.336	88.6422	319.336	79.5501	319.336	87.6616	319.336	79.3469	319.336	86.6451	319.336	79.5113	319.336	85.7697	319.336	79.8479	319.336	85.1885	319.336	80.2068	319.336	84.9039	319.336	80.5422	319.336	84.7924	319.336	80.9104	319.336	84.7398	319.336	81.4144	319.336	84.6742	319.336	82.0998	319.336	84.5172	319.336	82.8877	319.336	84.1817	319.336	83.6243
329.59	89.1268	329.59	88.2043	329.59	89.7978	329.59	87.0408	329.59	90.2125	329.59	85.6521	329.59	90.3717	329.59	84.061	329.59	90.2795	329.59	82.3063	329.59	89.9405	329.59	80.4685	329.59	89.3575	329.59	78.7229	329.59	88.5295	329.59	77.3919	329.59	87.4603	329.59	76.8376	329.59	86.2016	329.59	77.1093	329.59	84.9608	329.59	77.8623	329.59	84.1513	329.59	78.7167	329.59	84.0169	329.59	79.4712	329.59	84.2309	329.59	80.0852	329.59	84.3224	329.59	80.6145	329.59	84.1026	329.59	81.145	329.59	83.6223	329.59	81.7291	329.59	83.01	329.59	82.3619
341.309	89.9998	341.309	89.2792	341.309	90.4084	341.309	88.2656	341.309	90.4968	341.309	86.9836	341.309	90.2755	341.309	85.4587	341.309	89.7832	341.309	83.7154	341.309	89.0988	341.309	81.7784	341.309	88.3413	341.309	79.6843	341.309	87.6284	341.309	77.5248	341.309	86.9847	341.309	75.5911	341.309	86.2881	341.309	74.5953	341.309	85.3511	341.309	75.1667	341.309	84.1111	341.309	76.776	341.309	82.8541	341.309	78.5313	341.309	82.1809	341.309	80.0177	341.309	82.2657	341.309	81.1385	341.309	82.6143	341.309	81.9149	341.309	82.8339	341.309	82.4128	341.309	82.8518	341.309	82.7085
353.027	91.0796	353.027	90.2045	353.027	91.6252	353.027	89.0377	353.027	91.8101	353.027	87.6202	353.027	91.6113	353.027	85.9948	353.027	91.0148	353.027	84.2101	353.027	90.0204	353.027	82.3293	353.027	88.6643	353.027	80.429	353.027	87.0803	353.027	78.5663	353.027	85.5956	353.027	76.7199	353.027	84.679	353.027	74.7905	353.027	84.4972	353.027	72.878	353.027	84.7084	353.027	72.1343	353.027	84.938	353.027	73.9196	353.027	85.068	353.027	76.7775	353.027	85.1275	353.027	79.3154	353.027	85.1105	353.027	81.2767	353.027	84.9315	353.027	82.7305	353.027	84.5036	353.027	83.7821
366.211	90.1028	366.211	89.2381	366.211	90.6607	366.211	88.1104	366.211	90.8784	366.211	86.7816	366.211	90.7283	366.211	85.3399	366.211	90.1874	366.211	83.9038	366.211	89.2437	366.211	82.6132	366.211	87.9181	366.211	81.5935	366.211	86.3197	366.211	80.8909	366.211	84.7568	366.211	80.423	366.211	83.7883	366.211	80.01	366.211	83.7962	366.211	79.4709	366.211	84.4765	366.211	78.7409	366.211	85.3113	366.211	78.0442	366.211	86.0284	366.211	78.043	366.211	86.5102	366.211	79.2399	366.211	86.6648	366.211	81.1452	366.211	86.418	366.211	83.041	366.211	85.7318	366.211	84.6
379.395	88.6526	379.395	87.1971	379.395	89.6546	379.395	85.326	379.395	90.1954	379.395	83.161	379.395	90.2732	379.395	80.9916	379.395	89.8827	379.395	79.2827	379.395	89.0107	379.395	78.3853	379.395	87.6396	379.395	78.2229	379.395	85.7634	379.395	78.4845	379.395	83.4629	379.395	78.9026	379.395	81.165	379.395	79.3117	379.395	79.9703	379.395	79.6646	379.395	80.543	379.395	80.0585	379.395	82.017	379.395	80.6991	379.395	83.5956	379.395	81.724	379.395	84.9656	379.395	83.027	379.395	85.9627	379.395	84.3446	379.395	86.5038	379.395	85.4496	379.395	86.5789	379.395	86.2148
392.578	89.0435	392.578	87.8506	392.578	89.8194	392.578	86.268	392.578	90.1733	392.578	84.3529	392.578	90.1148	392.578	82.199	392.578	89.6629	392.578	79.942	392.578	88.8498	392.578	77.7679	392.578	87.737	392.578	75.9041	392.578	86.436	392.578	74.5499	392.578	85.1057	392.578	73.7613	392.578	83.8787	392.578	73.4477	392.578	82.76	392.578	73.5865	392.578	81.7225	392.578	74.459	392.578	81.1585	392.578	76.3373	392.578	81.8894	392.578	78.8486	392.578	83.6276	392.578	81.3497	392.578	85.2633	392.578	83.4718	392.578	86.2599	392.578	85.0792	392.578	86.5295	392.578	86.1155
405.762	89.558	405.762	88.418	405.762	90.1791	405.762	86.7477	405.762	90.283	405.762	84.53	405.762	89.8629	405.762	81.7661	405.762	88.9124	405.762	78.5551	405.762	87.4524	405.762	75.3062	405.762	85.6108	405.762	72.9872	405.762	83.7858	405.762	72.538	405.762	82.6658	405.762	73.5764	405.762	82.531	405.762	74.9332	405.762	82.7871	405.762	75.7894	405.762	82.8039	405.762	75.8477	405.762	82.6038	405.762	75.4406	405.762	82.8664	405.762	76.0477	405.762	83.8511	405.762	78.5195	405.762	84.8955	405.762	81.3291	405.762	85.4888	405.762	83.4902	405.762	85.4941	405.762	84.8558
420.41	89.3562	420.41	87.9445	420.41	90.2613	420.41	86.0562	420.41	90.6311	420.41	83.7168	420.41	90.4357	420.41	80.9493	420.41	89.6427	420.41	77.846	420.41	88.2251	420.41	74.797	420.41	86.2039	420.41	72.5095	420.41	83.8126	420.41	71.0643	420.41	81.8904	420.41	70.0141	420.41	81.5221	420.41	69.8556	420.41	82.1524	420.41	70.9171	420.41	82.6669	420.41	72.0789	420.41	83.0363	420.41	72.6592	420.41	83.7375	420.41	73.1191	420.41	84.5611	420.41	74.5994	420.41	84.8772	420.41	77.0959	420.41	84.4306	420.41	79.6033	420.41	83.3115	420.41	81.6842
435.059	89.2399	435.059	87.652	435.059	90.288	435.059	85.5633	435.059	90.7784	435.059	83.0654	435.059	90.6971	435.059	80.3721	435.059	90.0192	435.059	77.9281	435.059	88.6976	435.059	76.3284	435.059	86.6717	435.059	75.7237	435.059	83.9813	435.059	75.6368	435.059	81.2727	435.059	75.6443	435.059	80.2532	435.059	75.6625	435.059	80.9077	435.059	75.7505	435.059	81.5751	435.059	75.9039	435.059	81.9844	435.059	76.1011	435.059	82.6581	435.059	76.5168	435.059	83.583	435.059	77.5035	435.059	84.2115	435.059	79.1112	435.059	84.2367	435.059	80.9198	435.059	83.6425	435.059	82.5026
451.172	91.2027	451.172	89.845	451.172	91.9683	451.172	87.8505	451.172	92.1632	451.172	85.1624	451.172	91.7806	451.172	81.745	451.172	90.7843	451.172	77.6926	451.172	89.1183	451.172	73.5347	451.172	86.7396	451.172	70.6333	451.172	83.7124	451.172	70.3279	451.172	80.4352	451.172	71.9061	451.172	77.9459	451.172	73.6871	451.172	77.3977	451.172	74.8283	451.172	78.7171	451.172	75.2048	451.172	81.1049	451.172	75.2993	451.172	83.5727	451.172	76.3885	451.172	85.3706	451.172	78.9202	451.172	86.2906	451.172	81.6529	451.172	86.4619	451.172	83.7915	451.172	86.0852	451.172	85.2284
465.82	91.095	465.82	89.513	465.82	91.9407	465.82	87.1199	465.82	92.1004	465.82	83.8424	465.82	91.591	465.82	79.7889	465.82	90.3965	465.82	76.1838	465.82	88.5079	465.82	75.3375	465.82	86.0685	465.82	75.7461	465.82	83.7172	465.82	75.3604	465.82	82.5819	465.82	73.8467	465.82	82.6013	465.82	72.2486	465.82	82.2681	465.82	72.9553	465.82	80.8575	465.82	74.8413	465.82	81.377	465.82	75.8336	465.82	84.864	465.82	75.662	465.82	87.2617	465.82	75.5286	465.82	87.9973	465.82	77.7233	465.82	87.4669	465.82	81.1051	465.82	86.058	465.82	83.9524
483.398	91.5984	483.398	89.8328	483.398	92.7161	483.398	87.4804	483.398	93.1515	483.398	84.7614	483.398	92.844	483.398	82.2826	483.398	91.6915	483.398	80.8953	483.398	89.5485	483.398	80.6611	483.398	86.2274	483.398	80.8137	483.398	81.7717	483.398	80.6897	483.398	79.4054	483.398	79.9007	483.398	81.8131	483.398	78.2948	483.398	83.3176	483.398	76.3852	483.398	82.3957	483.398	76.103	483.398	80.7416	483.398	77.7254	483.398	83.6571	483.398	79.2449	483.398	86.7085	483.398	80.0579	483.398	87.7607	483.398	80.629	483.398	87.236	483.398	81.7655	483.398	85.6792	483.398	83.6435
499.512	91.9118	499.512	90.5827	499.512	92.6894	499.512	88.7581	499.512	92.8853	499.512	86.558	499.512	92.4703	499.512	84.2371	499.512	91.3863	499.512	82.1983	499.512	89.5028	499.512	80.7641	499.512	86.5626	499.512	79.9474	499.512	82.2071	499.512	79.6185	499.512	77.9085	499.512	79.5957	499.512	79.4025	499.512	79.5701	499.512	81.5635	499.512	79.2288	499.512	81.8864	499.512	78.4671	499.512	80.75	499.512	77.688	499.512	79.5044	499.512	78.0007	499.512	80.2418	499.512	79.7322	499.512	82.1254	499.512	81.7521	499.512	83.576	499.512	83.2899	499.512	84.2437	499.512	84.1366
517.09	92.4286	517.09	90.6843	517.09	93.4017	517.09	88.1629	517.09	93.6176	517.09	84.9878	517.09	93.0489	517.09	81.6939	517.09	91.6074	517.09	79.4258	517.09	89.1511	517.09	78.8911	517.09	85.5701	517.09	79.264	517.09	81.283	517.09	79.3621	517.09	78.1083	517.09	78.5203	517.09	76.3364	517.09	76.7052	517.09	74.1868	517.09	75.486	517.09	75.6154	517.09	77.0662	517.09	81.3041	517.09	79.371	517.09	84.9318	517.09	80.913	517.09	86.122	517.09	81.8455	517.09	85.4432	517.09	82.6728	517.09	84.1713	517.09	83.5196	517.09	83.8681	517.09	83.9689
536.133	92.8579	536.133	91.3326	536.133	93.7874	536.133	89.3263	536.133	94.036	536.133	87.0193	536.133	93.5129	536.133	84.666	536.133	92.0925	536.133	82.5018	536.133	89.5749	536.133	80.5861	536.133	85.6303	536.133	78.9065	536.133	80.0894	536.133	77.7132	536.133	77.1764	536.133	77.2823	536.133	79.3435	536.133	77.1865	536.133	80.2442	536.133	76.5873	536.133	79.4646	536.133	74.963	536.133	80.1235	536.133	73.5038	536.133	83.3366	536.133	75.9583	536.133	85.6182	536.133	79.7553	536.133	86.503	536.133	82.5723	536.133	86.5539	536.133	84.4227	536.133	86.2173	536.133	85.5623
555.176	92.1063	555.176	90.565	555.176	92.9369	555.176	88.3544	555.176	93.0266	555.176	85.5732	555.176	92.3383	555.176	82.5037	555.176	90.7992	555.176	79.7834	555.176	88.2494	555.176	78.095	555.176	84.4214	555.176	77.3121	555.176	79.4732	555.176	76.831	555.176	76.9335	555.176	76.3121	555.176	77.8358	555.176	75.5632	555.176	78.1123	555.176	74.1852	555.176	77.9207	555.176	71.473	555.176	78.929	555.176	68.3532	555.176	80.8499	555.176	72.159	555.176	82.335	555.176	76.8457	555.176	83.0391	555.176	79.73	555.176	83.0988	555.176	81.3511	555.176	82.767	555.176	82.2268
574.219	92.6641	574.219	90.727	574.219	93.7562	574.219	87.9563	574.219	93.984	574.219	84.4497	574.219	93.3056	574.219	80.8906	574.219	91.6193	574.219	78.9353	574.219	88.7349	574.219	78.7313	574.219	84.5898	574.219	79.1301	574.219	80.6699	574.219	79.6581	574.219	79.1212	574.219	79.7851	574.219	77.3661	574.219	78.9861	574.219	76.1022	574.219	77.0724	574.219	78.0036	574.219	74.8216	574.219	80.7869	574.219	74.0711	574.219	82.1286	574.219	73.5917	574.219	82.9957	574.219	72.202	574.219	86.0359	574.219	76.5058	574.219	88.3811	574.219	82.564	574.219	88.5361	574.219	86.5679
594.727	91.8907	594.727	89.9408	594.727	93.0047	594.727	87.2305	594.727	93.2576	594.727	83.9958	594.727	92.6205	594.727	80.8107	594.727	90.9926	594.727	78.252	594.727	88.1583	594.727	76.2237	594.727	83.8642	594.727	75.1304	594.727	78.3088	594.727	76.0621	594.727	73.184	594.727	77.8784	594.727	71.5787	594.727	79.0838	594.727	76.1352	594.727	79.1462	594.727	80.4875	594.727	77.7804	594.727	83.2254	594.727	74.8984	594.727	83.9919	594.727	73.9862	594.727	82.9606	594.727	77.9824	594.727	82.4007	594.727	81.2925	594.727	83.6894	594.727	83.2472	594.727	84.5238	594.727	84.2939
615.234	92.1323	615.234	89.9771	615.234	93.3748	615.234	87.0792	615.234	93.6258	615.234	83.8254	615.234	92.7748	615.234	80.8279	615.234	90.5893	615.234	78.6106	615.234	86.6714	615.234	77.1469	615.234	80.8928	615.234	75.7617	615.234	77.3459	615.234	73.6894	615.234	76.2741	615.234	72.7665	615.234	70.4722	615.234	75.7554	615.234	69.2572	615.234	78.1029	615.234	75.531	615.234	77.9391	615.234	80.3344	615.234	74.3295	615.234	82.9013	615.234	69.3448	615.234	83.142	615.234	76.3006	615.234	82.3055	615.234	80.4049	615.234	82.6973	615.234	82.5541	615.234	83.7599	615.234	83.7225
637.207	91.2052	637.207	88.6869	637.207	92.4991	637.207	85.0179	637.207	92.6478	637.207	81.0019	637.207	91.7049	637.207	78.9427	637.207	89.6749	637.207	79.1731	637.207	86.6636	637.207	79.3405	637.207	83.0595	637.207	78.3943	637.207	78.7034	637.207	76.2077	637.207	68.5569	637.207	73.8688	637.207	72.0989	637.207	74.0998	637.207	79.0389	637.207	75.4757	637.207	79.8132	637.207	75.8005	637.207	78.3204	637.207	74.7015	637.207	78.7587	637.207	71.7296	637.207	82.0444	637.207	70.5251	637.207	84.8427	637.207	77.4144	637.207	86.0339	637.207	82.2153	637.207	85.9422	637.207	84.7925
659.18	89.6988	659.18	87.6491	659.18	91.2554	659.18	85.1053	659.18	92	659.18	81.6222	659.18	91.5174	659.18	77.1777	659.18	89.3774	659.18	75.9478	659.18	85.2086	659.18	78.2334	659.18	81.1113	659.18	80.2917	659.18	81.6659	659.18	81.1834	659.18	79.1982	659.18	79.8136	659.18	77.6687	659.18	74.6597	659.18	83.986	659.18	72.6172	659.18	82.8181	659.18	78.2065	659.18	73.211	659.18	79.1655	659.18	75.8364	659.18	75.8512	659.18	78.5121	659.18	68.635	659.18	80.762	659.18	72.604	659.18	80.8364	659.18	75.6388	659.18	79.7503	659.18	77.9731
682.617	90.8416	682.617	88.1444	682.617	92.1608	682.617	83.6745	682.617	92.3267	682.617	77.4768	682.617	91.3761	682.617	76.7937	682.617	89.1132	682.617	79.5597	682.617	85.139	682.617	80.1272	682.617	81.0897	682.617	80.1516	682.617	82.91	682.617	81.4816	682.617	83.5388	682.617	82.1918	682.617	81.4674	682.617	80.5758	682.617	83.0923	682.617	75.1915	682.617	81.9034	682.617	69.5436	682.617	68.3745	682.617	76.2734	682.617	80.6601	682.617	78.0196	682.617	83.0722	682.617	75.3743	682.617	84.0892	682.617	71.5171	682.617	85.448	682.617	78.8345	682.617	85.1232	682.617	83.0476
707.52	89.8393	707.52	87.1335	707.52	91.1931	707.52	83.2544	707.52	91.4098	707.52	80.9114	707.52	90.6399	707.52	81.5704	707.52	88.6943	707.52	81.7985	707.52	84.5967	707.52	80.8445	707.52	77.0588	707.52	78.5631	707.52	81.7165	707.52	74.8192	707.52	84.6738	707.52	74.3259	707.52	84.3532	707.52	78.3371	707.52	84.3394	707.52	79.6178	707.52	80.8509	707.52	76.016	707.52	78.5727	707.52	65.4257	707.52	79.2147	707.52	75.5517	707.52	80.6808	707.52	76.0034	707.52	80.6641	707.52	72.8757	707.52	78.6876	707.52	77.9897	707.52	79.3731	707.52	80.4578
732.422	89.849	732.422	87.0944	732.422	91.0799	732.422	83.0627	732.422	90.8313	732.422	79.0363	732.422	89.3683	732.422	77.253	732.422	87.0093	732.422	77.0562	732.422	83.4624	732.422	77.7206	732.422	77.2132	732.422	78.709	732.422	78.1962	732.422	78.622	732.422	82.5022	732.422	76.6308	732.422	82.6311	732.422	75.2222	732.422	81.0221	732.422	76.8662	732.422	80.78	732.422	76.5356	732.422	81.6267	732.422	71.9407	732.422	80.0216	732.422	56.4406	732.422	79.5642	732.422	69.3705	732.422	80.2705	732.422	74.8545	732.422	80.2098	732.422	78.2797	732.422	80.6574	732.422	80.3088
757.324	88.3225	757.324	85.192	757.324	90.2592	757.324	81.6208	757.324	90.6942	757.324	80.0894	757.324	89.3175	757.324	80.2008	757.324	86.0348	757.324	79.6638	757.324	82.127	757.324	79.0922	757.324	80.3985	757.324	79.3462	757.324	78.6194	757.324	78.9914	757.324	77.7643	757.324	77.084	757.324	78.0695	757.324	76.062	757.324	74.5918	757.324	77.0849	757.324	76.5653	757.324	76.4844	757.324	79.7207	757.324	75.0448	757.324	78.15	757.324	75.5439	757.324	75.7103	757.324	75.5779	757.324	75.3836	757.324	70.1072	757.324	77.8017	757.324	73.7659	757.324	81.1856	757.324	80.7187
785.156	89.1105	785.156	86.5469	785.156	90.2263	785.156	82.2733	785.156	89.7635	785.156	76.3111	785.156	87.7047	785.156	74.2994	785.156	84.8789	785.156	78.0901	785.156	82.4815	785.156	80.8209	785.156	82.3025	785.156	82.6008	785.156	82.891	785.156	84.3645	785.156	83.1791	785.156	85.4781	785.156	82.3956	785.156	84.9281	785.156	77.3846	785.156	82.641	785.156	68.8516	785.156	81.7094	785.156	73.5221	785.156	82.31	785.156	73.9337	785.156	80.2441	785.156	79.4165	785.156	75.6954	785.156	83.2639	785.156	74.7864	785.156	82.5696	785.156	73.305	785.156	78.9542	785.156	72.9884
811.523	87.39	811.523	85.2162	811.523	89.4176	811.523	83.4586	811.523	91.0296	811.523	83.8906	811.523	90.6102	811.523	83.7801	811.523	87.1016	811.523	81.7117	811.523	79.4922	811.523	76.9829	811.523	75.3787	811.523	65.6165	811.523	77.3898	811.523	70.1832	811.523	75.8922	811.523	77.6993	811.523	69.7431	811.523	81.0658	811.523	73.3747	811.523	80.0329	811.523	80.3012	811.523	73.5917	811.523	81.8045	811.523	71.0942	811.523	83.2439	811.523	47.8723	811.523	81.7624	811.523	75.0304	811.523	74.5477	811.523	77.116	811.523	78.6779	811.523	78.9258	811.523	81.2515	811.523	81.4705
840.82	89.0626	840.82	85.8088	840.82	89.9265	840.82	80.4356	840.82	88.7715	840.82	78.1864	840.82	86.4829	840.82	81.2517	840.82	84.6978	840.82	83.596	840.82	84.3847	840.82	84.4102	840.82	83.9271	840.82	83.8626	840.82	81.495	840.82	83.3782	840.82	83.1699	840.82	84.5578	840.82	86.1066	840.82	84.9251	840.82	84.5977	840.82	82.6905	840.82	81.7546	840.82	82.4488	840.82	81.9848	840.82	83.2599	840.82	78.1001	840.82	79.1441	840.82	77.4048	840.82	72.6267	840.82	82.7732	840.82	75.8382	840.82	81.6207	840.82	76.3632	840.82	78.7267	840.82	77.232
870.117	88.1701	870.117	83.7218	870.117	90.9535	870.117	80.7757	870.117	90.8587	870.117	82.4795	870.117	87.4544	870.117	84.834	870.117	82.1529	870.117	85.1678	870.117	81.6712	870.117	83.4086	870.117	83.7875	870.117	79.9335	870.117	84.568	870.117	74.4604	870.117	82.238	870.117	66.3079	870.117	78.8046	870.117	67.003	870.117	78.7482	870.117	71.8474	870.117	72.0704	870.117	73.3524	870.117	78.8935	870.117	78.0295	870.117	75.8924	870.117	80.7317	870.117	65.3965	870.117	77.9147	870.117	79.2828	870.117	76.7166	870.117	81.6374	870.117	75.1634	870.117	77.5726	870.117	76.7604
900.879	89.3617	900.879	86.5339	900.879	89.8157	900.879	81.5484	900.879	88.3637	900.879	82.5631	900.879	85.8198	900.879	85.411	900.879	83.1783	900.879	85.9594	900.879	80.1398	900.879	85.4053	900.879	83.0035	900.879	83.2092	900.879	86.1889	900.879	77.6478	900.879	86.363	900.879	67.2241	900.879	84.135	900.879	72.5988	900.879	76.9624	900.879	69.8467	900.879	72.8679	900.879	51.9307	900.879	73.0606	900.879	70.0835	900.879	68.5222	900.879	76.5679	900.879	79.7683	900.879	72.7399	900.879	82.2137	900.879	78.0485	900.879	78.3706	900.879	79.652	900.879	72.132	900.879	72.0854
933.105	90.9127	933.105	86.7444	933.105	91.1306	933.105	82.8703	933.105	89.3491	933.105	84.5478	933.105	87.2063	933.105	84.1036	933.105	85.6991	933.105	83.4866	933.105	85.6142	933.105	82.0107	933.105	83.1129	933.105	80.9045	933.105	80.5061	933.105	81.2318	933.105	84.0566	933.105	80.16	933.105	85.3632	933.105	77.1753	933.105	82.8362	933.105	78.4548	933.105	79.9222	933.105	81.6481	933.105	68.7628	933.105	81.3781	933.105	73.3933	933.105	81.7602	933.105	77.5043	933.105	81.8571	933.105	80.9266	933.105	73.5124	933.105	81.6737	933.105	78.7855	933.105	80.3109	933.105	77.6657
965.332	87.436	965.332	83.3203	965.332	91.4619	965.332	84.404	965.332	91.9239	965.332	86.9164	965.332	87.4608	965.332	86.7202	965.332	77.8003	965.332	84.5978	965.332	74.9036	965.332	81.3184	965.332	83.156	965.332	76.5642	965.332	83.0541	965.332	73.1333	965.332	80.3655	965.332	72.8797	965.332	86.6433	965.332	75.1955	965.332	86.5522	965.332	76.8242	965.332	80.7242	965.332	79.3133	965.332	77.6084	965.332	80.0052	965.332	81.9465	965.332	82.1766	965.332	74.8066	965.332	80.2046	965.332	73.1637	965.332	75.6614	965.332	75.0894	965.332	77.9969	965.332	70.0824	965.332	73.1971
1,000.49	88.5219	1,000.49	85.6759	1,000.49	89.1215	1,000.49	83.3406	1,000.49	88.2646	1,000.49	84.0749	1,000.49	87.0753	1,000.49	85.3687	1,000.49	85.3796	1,000.49	86.2294	1,000.49	85.6827	1,000.49	85.6444	1,000.49	85.5245	1,000.49	83.2836	1,000.49	82.6155	1,000.49	80.6374	1,000.49	72.961	1,000.49	79.5347	1,000.49	76.135	1,000.49	79.0685	1,000.49	80.5602	1,000.49	77.7182	1,000.49	79.1305	1,000.49	75.7911	1,000.49	80.8686	1,000.49	78.4828	1,000.49	81.6739	1,000.49	80.0511	1,000.49	80.4283	1,000.49	78.2708	1,000.49	77.6833	1,000.49	73.2991	1,000.49	71.3608	1,000.49	71.0176	1,000.49	72.9788	1,000.49	75.0903
1,035.64	88.2997	1,035.64	87.0116	1,035.64	88.1124	1,035.64	85.2843	1,035.64	86.9232	1,035.64	84.4749	1,035.64	84.6275	1,035.64	84.1434	1,035.64	79.8221	1,035.64	83.6957	1,035.64	81.1197	1,035.64	82.0429	1,035.64	85.5183	1,035.64	78.6967	1,035.64	85.997	1,035.64	75.4204	1,035.64	81.9238	1,035.64	75.5222	1,035.64	65.4216	1,035.64	75.459	1,035.64	79.5648	1,035.64	76.0376	1,035.64	79.9508	1,035.64	76.5328	1,035.64	78.5259	1,035.64	75.2936	1,035.64	75.8702	1,035.64	72.4583	1,035.64	69.8163	1,035.64	81.0195	1,035.64	76.548	1,035.64	78.6998	1,035.64	79.6408	1,035.64	74.2127	1,035.64	78.1758	1,035.64	75.3148
1,072.27	87.9346	1,072.27	84.875	1,072.27	89.3614	1,072.27	83.9567	1,072.27	88.5375	1,072.27	84.8239	1,072.27	86.387	1,072.27	84.9954	1,072.27	84.9994	1,072.27	83.2261	1,072.27	83.0844	1,072.27	78.8555	1,072.27	79.9807	1,072.27	76.4776	1,072.27	80.1121	1,072.27	74.3455	1,072.27	80.034	1,072.27	70.1943	1,072.27	75.0896	1,072.27	63.5214	1,072.27	71.7001	1,072.27	71.0643	1,072.27	69.7435	1,072.27	71.5707	1,072.27	66.7032	1,072.27	74.3021	1,072.27	80.3991	1,072.27	74.1726	1,072.27	80.8533	1,072.27	74.2631	1,072.27	73.2808	1,072.27	73.6131	1,072.27	65.4529	1,072.27	72.7271	1,072.27	78.2016	1,072.27	78.1338
1,108.89	87.44	1,108.89	84.3071	1,108.89	89.5859	1,108.89	85.0346	1,108.89	88.2878	1,108.89	87.2507	1,108.89	83.6473	1,108.89	86.6648	1,108.89	79.6433	1,108.89	82.3565	1,108.89	82.3123	1,108.89	72.1393	1,108.89	87.8947	1,108.89	73.8982	1,108.89	87.947	1,108.89	83.5558	1,108.89	82.3433	1,108.89	85.8622	1,108.89	82.9692	1,108.89	82.5322	1,108.89	84.0805	1,108.89	80.2898	1,108.89	83.4627	1,108.89	80.9778	1,108.89	67.6714	1,108.89	74.3441	1,108.89	86.1091	1,108.89	67.8269	1,108.89	85.2372	1,108.89	69.8588	1,108.89	81.1128	1,108.89	74.8342	1,108.89	80.6264	1,108.89	77.924	1,108.89	67.66	1,108.89	74.4306
1,148.44	86.923	1,148.44	85.5972	1,148.44	88.6456	1,148.44	85.8876	1,148.44	88.0159	1,148.44	85.9843	1,148.44	84.144	1,148.44	85.0342	1,148.44	82.5551	1,148.44	82.5245	1,148.44	84.3558	1,148.44	75.9942	1,148.44	83.7344	1,148.44	69.7061	1,148.44	82.9699	1,148.44	77.5542	1,148.44	77.4588	1,148.44	81.2336	1,148.44	69.2353	1,148.44	80.4789	1,148.44	80.4476	1,148.44	73.2236	1,148.44	81.6728	1,148.44	65.8622	1,148.44	76.4687	1,148.44	73.5679	1,148.44	80.578	1,148.44	75.4331	1,148.44	80.2866	1,148.44	79.0769	1,148.44	71.3985	1,148.44	73.573	1,148.44	79.5578	1,148.44	70.4268	1,148.44	81.1261	1,148.44	73.9223
1,189.45	89.5828	1,189.45	86.8447	1,189.45	89.3621	1,189.45	85.7939	1,189.45	83.9402	1,189.45	86.5396	1,189.45	80.174	1,189.45	85.7769	1,189.45	82.1197	1,189.45	82.0583	1,189.45	85.5552	1,189.45	73.8942	1,189.45	84.5765	1,189.45	67.5576	1,189.45	83.4055	1,189.45	76.7763	1,189.45	81.5358	1,189.45	79.5339	1,189.45	80.1928	1,189.45	80.5632	1,189.45	78.292	1,189.45	82.6509	1,189.45	74.4924	1,189.45	80.8853	1,189.45	69.0473	1,189.45	79.6718	1,189.45	78.1612	1,189.45	70.7847	1,189.45	82.8663	1,189.45	68.6729	1,189.45	81.177	1,189.45	78.831	1,189.45	77.5211	1,189.45	81.4016	1,189.45	73.9005	1,189.45	80.5188
1,230.47	89.7348	1,230.47	87.5008	1,230.47	90.1521	1,230.47	86.5183	1,230.47	86.1587	1,230.47	85.6347	1,230.47	78.534	1,230.47	83.4797	1,230.47	82.4075	1,230.47	80.4588	1,230.47	85.4659	1,230.47	74.648	1,230.47	82.1505	1,230.47	68.9373	1,230.47	74.3744	1,230.47	74.0985	1,230.47	78.6049	1,230.47	74.2272	1,230.47	76.2679	1,230.47	75.4933	1,230.47	69.5028	1,230.47	71.4354	1,230.47	78.7969	1,230.47	64.8926	1,230.47	75.4607	1,230.47	65.6439	1,230.47	68.8643	1,230.47	66.8501	1,230.47	74.6246	1,230.47	75.2483	1,230.47	71.2229	1,230.47	75.408	1,230.47	74.0889	1,230.47	74.5584	1,230.47	73.689	1,230.47	70.8195
1,274.41	89.6019	1,274.41	87.6052	1,274.41	90.1974	1,274.41	86.5508	1,274.41	86.5268	1,274.41	85.2824	1,274.41	79.0409	1,274.41	80.9731	1,274.41	80.5796	1,274.41	76.3104	1,274.41	84.9443	1,274.41	79.1654	1,274.41	84.8291	1,274.41	80.7442	1,274.41	83.0727	1,274.41	80.474	1,274.41	81.2009	1,274.41	79.0288	1,274.41	78.1475	1,274.41	76.2964	1,274.41	76.7987	1,274.41	76.5399	1,274.41	74.7009	1,274.41	77.7087	1,274.41	71.0991	1,274.41	74.4142	1,274.41	75.2421	1,274.41	73.8274	1,274.41	76.3965	1,274.41	68.0215	1,274.41	77.5293	1,274.41	70.8292	1,274.41	68.038	1,274.41	72.6399	1,274.41	81.2355	1,274.41	79.0622
1,319.82	89.1942	1,319.82	86.4565	1,319.82	89.6586	1,319.82	85.2748	1,319.82	86.2781	1,319.82	84.6833	1,319.82	81.5393	1,319.82	82.7858	1,319.82	82.7328	1,319.82	79.4708	1,319.82	81.364	1,319.82	76.066	1,319.82	80.5195	1,319.82	74.9859	1,319.82	78.026	1,319.82	70.3103	1,319.82	79.5829	1,319.82	76.9758	1,319.82	78.5764	1,319.82	78.8298	1,319.82	68.5487	1,319.82	75.578	1,319.82	74.7692	1,319.82	74.5179	1,319.82	76.5264	1,319.82	72.5187	1,319.82	70.9715	1,319.82	71.2812	1,319.82	74.6315	1,319.82	72.2747	1,319.82	71.6566	1,319.82	71.1068	1,319.82	63.2842	1,319.82	77.1653	1,319.82	69.0333	1,319.82	75.1494
1,366.7	89.1911	1,366.7	86.7074	1,366.7	89.1729	1,366.7	84.9881	1,366.7	85.1573	1,366.7	84.6686	1,366.7	81.9057	1,366.7	82.5196	1,366.7	83.7426	1,366.7	77.6174	1,366.7	80.8076	1,366.7	68.7613	1,366.7	78.4018	1,366.7	73.5009	1,366.7	80.1344	1,366.7	78.0661	1,366.7	81.933	1,366.7	78.2197	1,366.7	80.5419	1,366.7	75.2234	1,366.7	77.6896	1,366.7	71.12	1,366.7	74.7895	1,366.7	75.1081	1,366.7	67.2182	1,366.7	70.1573	1,366.7	77.6893	1,366.7	75.3717	1,366.7	79.1207	1,366.7	65.5779	1,366.7	74.8013	1,366.7	69.9098	1,366.7	66.7862	1,366.7	67.3683	1,366.7	78.9516	1,366.7	75.3483
1,413.57	88.8371	1,413.57	86.1895	1,413.57	88.8555	1,413.57	84.5562	1,413.57	83.6683	1,413.57	84.8341	1,413.57	82.3025	1,413.57	82.4994	1,413.57	84.881	1,413.57	65.6837	1,413.57	77.6335	1,413.57	73.9305	1,413.57	72.1535	1,413.57	76.4821	1,413.57	78.8793	1,413.57	79.7239	1,413.57	78.634	1,413.57	82.1813	1,413.57	80.8429	1,413.57	78.4594	1,413.57	76.9634	1,413.57	69.404	1,413.57	64.0272	1,413.57	70.0472	1,413.57	67.8235	1,413.57	74.2904	1,413.57	59.014	1,413.57	72.614	1,413.57	72.3139	1,413.57	69.9176	1,413.57	74.2735	1,413.57	68.3963	1,413.57	69.8347	1,413.57	74.4425	1,413.57	75.5976	1,413.57	77.7756
1,463.38	89.7402	1,463.38	86.3919	1,463.38	89.4653	1,463.38	84.0673	1,463.38	83.5867	1,463.38	83.4038	1,463.38	81.8815	1,463.38	81.2673	1,463.38	84.9364	1,463.38	71.7988	1,463.38	73.7135	1,463.38	72.6657	1,463.38	72.7973	1,463.38	77.0511	1,463.38	81.6037	1,463.38	79.9198	1,463.38	84.9197	1,463.38	80.2347	1,463.38	80.5069	1,463.38	76.379	1,463.38	75.5231	1,463.38	69.8229	1,463.38	75.7761	1,463.38	72.7385	1,463.38	70.916	1,463.38	73.0832	1,463.38	69.3783	1,463.38	74.1069	1,463.38	79.0725	1,463.38	57.2501	1,463.38	71.5709	1,463.38	67.8347	1,463.38	73.557	1,463.38	65.6478	1,463.38	71.6767	1,463.38	60.4596
1,516.11	89.0615	1,516.11	87.2558	1,516.11	90.3385	1,516.11	86.053	1,516.11	83.7412	1,516.11	80.736	1,516.11	76.348	1,516.11	78.6078	1,516.11	79.3157	1,516.11	80.613	1,516.11	81.6012	1,516.11	79.1548	1,516.11	76.4415	1,516.11	78.6362	1,516.11	79.3391	1,516.11	76.1633	1,516.11	73.5492	1,516.11	77.6503	1,516.11	80.2478	1,516.11	77.8235	1,516.11	79.3798	1,516.11	79.4528	1,516.11	80.188	1,516.11	79.332	1,516.11	78.9297	1,516.11	73.0711	1,516.11	77.5893	1,516.11	72.9132	1,516.11	73.1354	1,516.11	75.4294	1,516.11	74.3485	1,516.11	70.3214	1,516.11	68.9752	1,516.11	68.1292	1,516.11	79.5999	1,516.11	77.6575
1,568.85	89.8097	1,568.85	85.191	1,568.85	88.566	1,568.85	83.8861	1,568.85	79.5387	1,568.85	84.1801	1,568.85	80.7641	1,568.85	79.3553	1,568.85	82.3754	1,568.85	70.2127	1,568.85	79.0482	1,568.85	53.637	1,568.85	79.2487	1,568.85	73.9877	1,568.85	84.2	1,568.85	78.0884	1,568.85	85.138	1,568.85	78.5604	1,568.85	81.3065	1,568.85	70.8698	1,568.85	78.9482	1,568.85	72.3346	1,568.85	70.4802	1,568.85	78.5261	1,568.85	77.8158	1,568.85	77.0127	1,568.85	77.0365	1,568.85	74.8536	1,568.85	75.6211	1,568.85	68.9988	1,568.85	78.218	1,568.85	66.2299	1,568.85	75.9745	1,568.85	55.6676	1,568.85	71.7366	1,568.85	71.1345
1,624.51	88.3841	1,624.51	85.0695	1,624.51	87.9966	1,624.51	84.3912	1,624.51	80.3319	1,624.51	81.3005	1,624.51	77.0222	1,624.51	75.0596	1,624.51	76.6314	1,624.51	71.9221	1,624.51	77.0888	1,624.51	68.8129	1,624.51	62.2914	1,624.51	68.285	1,624.51	81.5533	1,624.51	71.3149	1,624.51	81.7006	1,624.51	73.8836	1,624.51	72.6187	1,624.51	72.5526	1,624.51	73.2161	1,624.51	63.8114	1,624.51	69.5931	1,624.51	66.1647	1,624.51	65.5466	1,624.51	56.0052	1,624.51	55.605	1,624.51	69.7852	1,624.51	72.549	1,624.51	72.8882	1,624.51	68.0838	1,624.51	72.521	1,624.51	73.2563	1,624.51	71.1087	1,624.51	75.5358	1,624.51	71.0849
1,681.64	88.5815	1,681.64	85.4046	1,681.64	87.9584	1,681.64	84.0187	1,681.64	80.3127	1,681.64	81.3058	1,681.64	75.4197	1,681.64	76.2838	1,681.64	78.7891	1,681.64	74.1525	1,681.64	77.2305	1,681.64	76.0167	1,681.64	76.6156	1,681.64	76.0034	1,681.64	82.9255	1,681.64	72.3877	1,681.64	81.2816	1,681.64	70.8996	1,681.64	79.5553	1,681.64	70.5633	1,681.64	73.5479	1,681.64	74.3739	1,681.64	70.3265	1,681.64	69.047	1,681.64	68.3354	1,681.64	67.4256	1,681.64	71.4863	1,681.64	69.0877	1,681.64	63.8609	1,681.64	66.4387	1,681.64	68.1735	1,681.64	71.7722	1,681.64	63.345	1,681.64	75.6747	1,681.64	49.4461	1,681.64	73.2568
1,741.7	89.6327	1,741.7	84.9997	1,741.7	89.6453	1,741.7	83.6205	1,741.7	80.2975	1,741.7	80.463	1,741.7	74.6676	1,741.7	72.3416	1,741.7	76.0691	1,741.7	70.1677	1,741.7	78.4141	1,741.7	71.8562	1,741.7	75.9779	1,741.7	69.8893	1,741.7	84.4329	1,741.7	71.9079	1,741.7	84.1376	1,741.7	72.7414	1,741.7	77.3194	1,741.7	71.9804	1,741.7	74.9312	1,741.7	69.5979	1,741.7	58.7695	1,741.7	68.044	1,741.7	71.0034	1,741.7	66.9128	1,741.7	66.7642	1,741.7	72.559	1,741.7	68.7094	1,741.7	70.148	1,741.7	67.4041	1,741.7	69.8344	1,741.7	68.5727	1,741.7	70.0248	1,741.7	77.3132	1,741.7	69.3139
1,803.22	90.0054	1,803.22	85.9595	1,803.22	89.6445	1,803.22	84.2955	1,803.22	81.1567	1,803.22	78.4571	1,803.22	73.2054	1,803.22	73.2021	1,803.22	73.3067	1,803.22	72.6672	1,803.22	77.9278	1,803.22	69.5341	1,803.22	79.4734	1,803.22	71.6639	1,803.22	84.7294	1,803.22	72.5997	1,803.22	81.3135	1,803.22	73.5815	1,803.22	80.7049	1,803.22	69.3556	1,803.22	74.7024	1,803.22	70.9852	1,803.22	70.3534	1,803.22	68.9371	1,803.22	67.3474	1,803.22	69.3263	1,803.22	68.956	1,803.22	69.6608	1,803.22	62.552	1,803.22	71.1817	1,803.22	66.9001	1,803.22	61.5864	1,803.22	67.6692	1,803.22	72.398	1,803.22	52.0009	1,803.22	74.1286
1,866.21	89.0625	1,866.21	86.5836	1,866.21	88.5759	1,866.21	84.3634	1,866.21	80.6103	1,866.21	76.9788	1,866.21	69.4144	1,866.21	69.8853	1,866.21	74.0893	1,866.21	70.4054	1,866.21	81.0583	1,866.21	75.4948	1,866.21	80.6829	1,866.21	78.2039	1,866.21	84.9862	1,866.21	78.4441	1,866.21	84.6735	1,866.21	77.9815	1,866.21	77.5681	1,866.21	76.193	1,866.21	77.2364	1,866.21	75.2571	1,866.21	74.6955	1,866.21	71.6338	1,866.21	70.6512	1,866.21	71.3823	1,866.21	67.7748	1,866.21	62.5699	1,866.21	63.003	1,866.21	63.729	1,866.21	57.0472	1,866.21	66.3597	1,866.21	60.0111	1,866.21	68.8568	1,866.21	78.4719	1,866.21	73.7756
1,932.13	87.5996	1,932.13	83.9786	1,932.13	87.46	1,932.13	82.7037	1,932.13	78.5571	1,932.13	74.1212	1,932.13	65.6082	1,932.13	65.7497	1,932.13	73.6436	1,932.13	69.6771	1,932.13	79.0159	1,932.13	75.1042	1,932.13	83.5628	1,932.13	76.7194	1,932.13	86.3145	1,932.13	77.4939	1,932.13	80.2502	1,932.13	75.9729	1,932.13	78.4334	1,932.13	75.3083	1,932.13	66.1706	1,932.13	71.523	1,932.13	73.0228	1,932.13	71.6786	1,932.13	68.9112	1,932.13	68.0086	1,932.13	68.9682	1,932.13	69.3576	1,932.13	40.706	1,932.13	70.9053	1,932.13	65.5469	1,932.13	61.8164	1,932.13	70.6743	1,932.13	74.017	1,932.13	63.2377	1,932.13	72.6166
1,999.51	88.7421	1,999.51	86.2154	1,999.51	87.4068	1,999.51	82.9381	1,999.51	77.1017	1,999.51	72.803	1,999.51	68.3924	1,999.51	67.4849	1,999.51	76.9552	1,999.51	71.4854	1,999.51	81.4862	1,999.51	76.2544	1,999.51	84.0692	1,999.51	76.8292	1,999.51	84.4381	1,999.51	74.8587	1,999.51	83.8881	1,999.51	67.7393	1,999.51	78.9441	1,999.51	72.0304	1,999.51	69.72	1,999.51	72.351	1,999.51	75.2031	1,999.51	70.8554	1,999.51	71.6712	1,999.51	71.7832	1,999.51	61.9271	1,999.51	68.4248	1,999.51	67.2133	1,999.51	63.8742	1,999.51	64.0666	1,999.51	70.5391	1,999.51	59.7898	1,999.51	68.9324	1,999.51	73.5301	1,999.51	72.985
2,069.82	88.8656	2,069.82	86.1386	2,069.82	87.8947	2,069.82	81.9707	2,069.82	79.6305	2,069.82	71.0437	2,069.82	64.9894	2,069.82	62.6896	2,069.82	76.5155	2,069.82	75.8886	2,069.82	83.3076	2,069.82	78.9156	2,069.82	85.5072	2,069.82	78.7121	2,069.82	85.6612	2,069.82	78.0172	2,069.82	76.5327	2,069.82	78.6653	2,069.82	75.5912	2,069.82	74.6035	2,069.82	68.5606	2,069.82	75.0878	2,069.82	70.4999	2,069.82	74.7905	2,069.82	70.9505	2,069.82	63.9315	2,069.82	68.0406	2,069.82	65.6451	2,069.82	61.3302	2,069.82	67.5984	2,069.82	63.2418	2,069.82	61.7712	2,069.82	67.6684	2,069.82	67.5244	2,069.82	72.5758	2,069.82	64.2155
2,143.07	88.9851	2,143.07	86.0284	2,143.07	87.0048	2,143.07	80.932	2,143.07	78.3407	2,143.07	70.175	2,143.07	58.8528	2,143.07	72.0747	2,143.07	79.2767	2,143.07	76.5461	2,143.07	82.143	2,143.07	80.2602	2,143.07	86.5127	2,143.07	80.3482	2,143.07	81.688	2,143.07	80.856	2,143.07	82.4652	2,143.07	80.2554	2,143.07	80.7653	2,143.07	79.311	2,143.07	67.8135	2,143.07	67.1627	2,143.07	64.3638	2,143.07	71.7047	2,143.07	71.9468	2,143.07	71.8438	2,143.07	67.6516	2,143.07	64.9105	2,143.07	68.5202	2,143.07	65.2923	2,143.07	61.5711	2,143.07	67.2604	2,143.07	69.3837	2,143.07	68.9751	2,143.07	65.4234	2,143.07	74.7067
2,219.24	87.6117	2,219.24	86.5163	2,219.24	84.8877	2,219.24	82.483	2,219.24	77.7423	2,219.24	79.0005	2,219.24	67.645	2,219.24	72.8462	2,219.24	79.9639	2,219.24	76.3523	2,219.24	84.8415	2,219.24	81.339	2,219.24	85.6834	2,219.24	80.43	2,219.24	84.158	2,219.24	76.2787	2,219.24	76.7318	2,219.24	66.7313	2,219.24	68.888	2,219.24	72.3024	2,219.24	71.1936	2,219.24	76.6994	2,219.24	67.906	2,219.24	71.9477	2,219.24	71.1168	2,219.24	69.3136	2,219.24	68.218	2,219.24	70.6221	2,219.24	66.2693	2,219.24	55.8065	2,219.24	66.5659	2,219.24	62.6193	2,219.24	63.8407	2,219.24	67.9587	2,219.24	75.0599	2,219.24	72.1302
2,296.88	88.3202	2,296.88	85.4638	2,296.88	86.6831	2,296.88	78.804	2,296.88	77.6258	2,296.88	75.7522	2,296.88	70.6989	2,296.88	70.1951	2,296.88	80.1087	2,296.88	82.7686	2,296.88	85.033	2,296.88	81.5605	2,296.88	86.9763	2,296.88	79.4169	2,296.88	81.0486	2,296.88	76.9648	2,296.88	81.955	2,296.88	79.5828	2,296.88	80.8988	2,296.88	77.1475	2,296.88	57.2306	2,296.88	68.2172	2,296.88	64.2032	2,296.88	73.3458	2,296.88	73.0885	2,296.88	68.2314	2,296.88	65.6678	2,296.88	64.2299	2,296.88	68.869	2,296.88	63.8743	2,296.88	64.5087	2,296.88	66.7966	2,296.88	73.3852	2,296.88	68.9983	2,296.88	63.9831	2,296.88	66.2924
2,378.91	88.7264	2,378.91	86.624	2,378.91	85.3928	2,378.91	80.3463	2,378.91	77.8842	2,378.91	80.4776	2,378.91	69.9036	2,378.91	77.5307	2,378.91	81.5217	2,378.91	81.3221	2,378.91	86.4631	2,378.91	81.7386	2,378.91	85.8026	2,378.91	80.466	2,378.91	83.1686	2,378.91	80.0091	2,378.91	81.2363	2,378.91	79.467	2,378.91	68.7317	2,378.91	77.4785	2,378.91	72.2813	2,378.91	73.4821	2,378.91	64.6454	2,378.91	70.8504	2,378.91	70.958	2,378.91	71.2984	2,378.91	70.4043	2,378.91	69.7255	2,378.91	65.7858	2,378.91	66.1371	2,378.91	68.6166	2,378.91	69.5711	2,378.91	68.0028	2,378.91	70.2275	2,378.91	67.6119	2,378.91	72.346
2,462.4	88.2915	2,462.4	85.7313	2,462.4	84.6369	2,462.4	81.4298	2,462.4	80.3003	2,462.4	79.9789	2,462.4	67.8466	2,462.4	76.6246	2,462.4	82.3446	2,462.4	82.4559	2,462.4	85.8335	2,462.4	82.0438	2,462.4	86.1984	2,462.4	81.1658	2,462.4	82.1296	2,462.4	75.8372	2,462.4	82.224	2,462.4	75.3965	2,462.4	80.2277	2,462.4	67.8384	2,462.4	63.2296	2,462.4	72.7422	2,462.4	68.0288	2,462.4	72.8349	2,462.4	68.6561	2,462.4	66.6675	2,462.4	66.8016	2,462.4	67.5801	2,462.4	67.039	2,462.4	57.4623	2,462.4	67.3929	2,462.4	62.8696	2,462.4	66.784	2,462.4	71.9549	2,462.4	72.3569	2,462.4	74.3432
2,548.83	88.3356	2,548.83	85.7547	2,548.83	84.9975	2,548.83	82.7853	2,548.83	80.2684	2,548.83	80.5895	2,548.83	74.328	2,548.83	79.4422	2,548.83	83.2553	2,548.83	83.8597	2,548.83	87.242	2,548.83	82.628	2,548.83	84.326	2,548.83	78.6891	2,548.83	84.4603	2,548.83	80.2127	2,548.83	80.3895	2,548.83	81.7113	2,548.83	76.0604	2,548.83	78.664	2,548.83	53.7157	2,548.83	75.2549	2,548.83	64.7995	2,548.83	72.1444	2,548.83	69.5885	2,548.83	68.6863	2,548.83	70.1782	2,548.83	69.8011	2,548.83	68.6413	2,548.83	54.7244	2,548.83	64.6738	2,548.83	61.879	2,548.83	71.4469	2,548.83	71.9445	2,548.83	68.7858	2,548.83	70.8774
2,639.65	89.2449	2,639.65	85.547	2,639.65	85.1476	2,639.65	82.6141	2,639.65	81.0522	2,639.65	80.0006	2,639.65	73.5025	2,639.65	82.7508	2,639.65	82.7323	2,639.65	84.744	2,639.65	85.5405	2,639.65	81.3997	2,639.65	85.3568	2,639.65	82.4838	2,639.65	83.2629	2,639.65	80.7755	2,639.65	82.0833	2,639.65	77.6662	2,639.65	83.035	2,639.65	77.9904	2,639.65	70.1861	2,639.65	73.0799	2,639.65	66.9447	2,639.65	71.0328	2,639.65	71.3666	2,639.65	70.549	2,639.65	56.2117	2,639.65	62.3428	2,639.65	71.2119	2,639.65	58.8634	2,639.65	67.2435	2,639.65	62.3371	2,639.65	72.9202	2,639.65	66.2861	2,639.65	62.9484	2,639.65	70.2257
2,731.93	87.9128	2,731.93	85.5514	2,731.93	84.2816	2,731.93	84.394	2,731.93	81.6143	2,731.93	80.393	2,731.93	74.9124	2,731.93	83.1645	2,731.93	83.3163	2,731.93	83.3866	2,731.93	86.2211	2,731.93	83.9384	2,731.93	82.7574	2,731.93	83.2556	2,731.93	86.3753	2,731.93	76.8141	2,731.93	76.8993	2,731.93	80.4472	2,731.93	77.6297	2,731.93	74.7986	2,731.93	66.641	2,731.93	77.0328	2,731.93	68.6397	2,731.93	70.2523	2,731.93	71.7617	2,731.93	71.2084	2,731.93	68.0155	2,731.93	58.8263	2,731.93	65.5948	2,731.93	67.3341	2,731.93	70.0481	2,731.93	71.104	2,731.93	69.3898	2,731.93	59.9087	2,731.93	68.885	2,731.93	74.3262
2,828.61	89.6893	2,828.61	85.372	2,828.61	84.706	2,828.61	83.7908	2,828.61	82.2388	2,828.61	79.9954	2,828.61	77.285	2,828.61	85.2443	2,828.61	82.7088	2,828.61	86.0784	2,828.61	84.9858	2,828.61	84.384	2,828.61	83.5653	2,828.61	82.1787	2,828.61	83.6212	2,828.61	83.2002	2,828.61	83.1997	2,828.61	82.35	2,828.61	80.9868	2,828.61	79.9929	2,828.61	65.3646	2,828.61	66.199	2,828.61	67.0219	2,828.61	72.6098	2,828.61	69.7604	2,828.61	62.9413	2,828.61	68.5986	2,828.61	66.3905	2,828.61	68.749	2,828.61	61.4286	2,828.61	67.4353	2,828.61	61.178	2,828.61	68.408	2,828.61	71.3317	2,828.61	72.6982	2,828.61	74.3352
2,928.22	87.981	2,928.22	85.8129	2,928.22	85.2876	2,928.22	86.0154	2,928.22	83.3345	2,928.22	83.2194	2,928.22	79.0076	2,928.22	85.6904	2,928.22	83.2717	2,928.22	85.9409	2,928.22	85.1275	2,928.22	85.1127	2,928.22	82.6381	2,928.22	83.3481	2,928.22	84.8911	2,928.22	78.0973	2,928.22	77.0698	2,928.22	76.071	2,928.22	79.1527	2,928.22	74.58	2,928.22	68.9024	2,928.22	78.8237	2,928.22	67.6986	2,928.22	71.1931	2,928.22	66.7635	2,928.22	63.8756	2,928.22	69.4906	2,928.22	63.4288	2,928.22	63.7468	2,928.22	66.5083	2,928.22	72.5101	2,928.22	69.199	2,928.22	69.9661	2,928.22	68.7607	2,928.22	73.5523	2,928.22	73.9587
3,030.76	89.5893	3,030.76	86.0235	3,030.76	84.6957	3,030.76	84.8172	3,030.76	83.9597	3,030.76	81.9605	3,030.76	82.7835	3,030.76	87.0758	3,030.76	84.184	3,030.76	85.0738	3,030.76	82.6771	3,030.76	84.8111	3,030.76	85.2585	3,030.76	81.4495	3,030.76	84.9915	3,030.76	81.9921	3,030.76	84.1086	3,030.76	83.5585	3,030.76	74.6422	3,030.76	81.036	3,030.76	74.0597	3,030.76	68.3083	3,030.76	70.7592	3,030.76	72.0427	3,030.76	66.8499	3,030.76	66.1604	3,030.76	69.4753	3,030.76	58.714	3,030.76	68.6906	3,030.76	67.5279	3,030.76	68.7078	3,030.76	59.5368	3,030.76	73.2304	3,030.76	71.9763	3,030.76	73.8406	3,030.76	69.8514
3,137.7	89.2242	3,137.7	86.4127	3,137.7	85.2057	3,137.7	86.3052	3,137.7	84.1786	3,137.7	84.7035	3,137.7	83.3962	3,137.7	87.8124	3,137.7	84.9185	3,137.7	87.2867	3,137.7	82.1435	3,137.7	83.4863	3,137.7	86.2135	3,137.7	84.0744	3,137.7	86.4194	3,137.7	80.2678	3,137.7	86.7864	3,137.7	74.4833	3,137.7	82.7869	3,137.7	78.2352	3,137.7	75.0025	3,137.7	78.6982	3,137.7	69.304	3,137.7	69.0063	3,137.7	68.2814	3,137.7	64.9331	3,137.7	67.7153	3,137.7	60.6296	3,137.7	68.0419	3,137.7	59.9604	3,137.7	67.9431	3,137.7	71.2709	3,137.7	71.966	3,137.7	72.6856	3,137.7	71.2363	3,137.7	71.5046
3,249.02	90.194	3,249.02	86.867	3,249.02	86.3264	3,249.02	86.4486	3,249.02	84.6343	3,249.02	86.0805	3,249.02	85.4917	3,249.02	87.4842	3,249.02	85.8698	3,249.02	86.1532	3,249.02	82.241	3,249.02	85.8874	3,249.02	85.5788	3,249.02	81.1144	3,249.02	87.9004	3,249.02	82.478	3,249.02	86.9418	3,249.02	83.3841	3,249.02	80.2822	3,249.02	81.8816	3,249.02	74.0104	3,249.02	73.7769	3,249.02	70.7957	3,249.02	72.0464	3,249.02	66.4488	3,249.02	66.0753	3,249.02	72.5083	3,249.02	59.2882	3,249.02	67.8314	3,249.02	67.6531	3,249.02	68.0488	3,249.02	68.4268	3,249.02	74.893	3,249.02	72.764	3,249.02	73.1961	3,249.02	71.3025
3,363.28	90.1991	3,363.28	87.258	3,363.28	86.0992	3,363.28	85.7808	3,363.28	85.1903	3,363.28	87.2758	3,363.28	86.3698	3,363.28	87.405	3,363.28	86.7688	3,363.28	86.799	3,363.28	82.1988	3,363.28	84.1022	3,363.28	87.3986	3,363.28	84.9932	3,363.28	87.8161	3,363.28	80.3574	3,363.28	88.2517	3,363.28	75.3456	3,363.28	82.7365	3,363.28	79.594	3,363.28	76.9701	3,363.28	78.1327	3,363.28	72.7271	3,363.28	71.7081	3,363.28	71.4576	3,363.28	68.0605	3,363.28	70.0036	3,363.28	62.803	3,363.28	71.3895	3,363.28	70.8121	3,363.28	68.9982	3,363.28	70.0474	3,363.28	74.5322	3,363.28	71.2864	3,363.28	69.9288	3,363.28	72.4475
3,481.93	90.9762	3,481.93	87.0045	3,481.93	87.9981	3,481.93	86.6076	3,481.93	85.1353	3,481.93	87.9668	3,481.93	88.3346	3,481.93	87.4597	3,481.93	86.5719	3,481.93	86.3318	3,481.93	83.7324	3,481.93	85.2885	3,481.93	88.5256	3,481.93	83.4903	3,481.93	87.3452	3,481.93	83.1781	3,481.93	88.0404	3,481.93	84.9335	3,481.93	81.127	3,481.93	80.1675	3,481.93	77.1974	3,481.93	78.0024	3,481.93	71.8195	3,481.93	73.9403	3,481.93	69.065	3,481.93	70.6647	3,481.93	72.2953	3,481.93	66.9293	3,481.93	70.4015	3,481.93	60.8167	3,481.93	67.3065	3,481.93	72.12	3,481.93	74.5967	3,481.93	70.1468	3,481.93	72.5748	3,481.93	72.1435
3,604.98	91.6559	3,604.98	87.719	3,604.98	88.9388	3,604.98	87.0776	3,604.98	85.4463	3,604.98	88.7693	3,604.98	88.938	3,604.98	87.4698	3,604.98	87.8458	3,604.98	87.6998	3,604.98	82.9135	3,604.98	85.0439	3,604.98	86.1222	3,604.98	86.7239	3,604.98	88.1999	3,604.98	79.3248	3,604.98	86.6774	3,604.98	76.8238	3,604.98	77.3781	3,604.98	78.2858	3,604.98	65.3807	3,604.98	78.7204	3,604.98	73.5762	3,604.98	72.1991	3,604.98	71.2907	3,604.98	65.5873	3,604.98	70.1083	3,604.98	68.3905	3,604.98	69.4475	3,604.98	67.5808	3,604.98	64.8342	3,604.98	59.1376	3,604.98	74.9315	3,604.98	69.1268	3,604.98	71.6776	3,604.98	70.546
3,732.42	91.0986	3,732.42	87.1576	3,732.42	89.4032	3,732.42	87.394	3,732.42	85.6824	3,732.42	89.5072	3,732.42	89.7518	3,732.42	87.7629	3,732.42	88.5595	3,732.42	87.3812	3,732.42	82.5291	3,732.42	86.6741	3,732.42	86.1035	3,732.42	83.9158	3,732.42	87.0705	3,732.42	84.1981	3,732.42	86.7339	3,732.42	83.7748	3,732.42	80.3428	3,732.42	83.1031	3,732.42	69.3011	3,732.42	69.0185	3,732.42	72.9744	3,732.42	75.3109	3,732.42	72.0132	3,732.42	66.1836	3,732.42	68.032	3,732.42	65.4177	3,732.42	67.4624	3,732.42	70.4283	3,732.42	70.9576	3,732.42	69.3407	3,732.42	72.6865	3,732.42	61.7413	3,732.42	76.1576	3,732.42	71.5404
3,864.26	91.5241	3,864.26	87.3184	3,864.26	91.1993	3,864.26	88.059	3,864.26	85.843	3,864.26	89.7117	3,864.26	89.3561	3,864.26	87.4621	3,864.26	89.0011	3,864.26	88.7812	3,864.26	82.3646	3,864.26	85.7443	3,864.26	87.3713	3,864.26	85.0855	3,864.26	86.1658	3,864.26	77.8503	3,864.26	83.8614	3,864.26	80.9631	3,864.26	77.4141	3,864.26	76.4883	3,864.26	75.8943	3,864.26	79.4127	3,864.26	72.3718	3,864.26	67.6558	3,864.26	72.2231	3,864.26	68.6396	3,864.26	66.4207	3,864.26	53.5212	3,864.26	70.0038	3,864.26	69.5488	3,864.26	68.4227	3,864.26	67.566	3,864.26	71.5055	3,864.26	73.9845	3,864.26	70.7501	3,864.26	70.997
4,000.49	90.4566	4,000.49	87.2976	4,000.49	90.9813	4,000.49	89.3441	4,000.49	87.055	4,000.49	89.6366	4,000.49	89.873	4,000.49	88.1096	4,000.49	89.8631	4,000.49	88.0623	4,000.49	83.3742	4,000.49	85.974	4,000.49	87.2354	4,000.49	84.0567	4,000.49	85.6715	4,000.49	83.7016	4,000.49	81.6714	4,000.49	76.6976	4,000.49	76.7103	4,000.49	80.7038	4,000.49	77.9177	4,000.49	77.7004	4,000.49	70.4532	4,000.49	70.3322	4,000.49	71.3517	4,000.49	68.8464	4,000.49	66.6766	4,000.49	65.0501	4,000.49	70.4371	4,000.49	62.9791	4,000.49	68.1358	4,000.49	68.708	4,000.49	71.2165	4,000.49	64.3189	4,000.49	76.5049	4,000.49	71.895
4,141.11	90.6414	4,141.11	87.9456	4,141.11	90.9084	4,141.11	89.1043	4,141.11	87.4131	4,141.11	89.8759	4,141.11	90.6	4,141.11	88.2182	4,141.11	90.4398	4,141.11	88.4937	4,141.11	83.1001	4,141.11	85.7673	4,141.11	87.7192	4,141.11	84.1	4,141.11	86.7619	4,141.11	81.8858	4,141.11	84.0208	4,141.11	82.4509	4,141.11	80.4676	4,141.11	80.1552	4,141.11	76.4958	4,141.11	73.2342	4,141.11	69.6893	4,141.11	73.4425	4,141.11	71.3783	4,141.11	65.7008	4,141.11	66.8503	4,141.11	51.8079	4,141.11	66.3427	4,141.11	64.885	4,141.11	64.6474	4,141.11	57.6591	4,141.11	70.3506	4,141.11	60.4515	4,141.11	68.2686	4,141.11	74.0235
4,287.6	90.6935	4,287.6	89.1241	4,287.6	91.2734	4,287.6	90.2924	4,287.6	88.2967	4,287.6	89.5229	4,287.6	90.1592	4,287.6	88.1938	4,287.6	90.7271	4,287.6	87.696	4,287.6	83.2998	4,287.6	85.4505	4,287.6	85.8041	4,287.6	84.6057	4,287.6	86.0845	4,287.6	81.5421	4,287.6	87.7604	4,287.6	76.578	4,287.6	84.3917	4,287.6	80.8308	4,287.6	76.8116	4,287.6	76.2951	4,287.6	68.6785	4,287.6	71.4269	4,287.6	69.3614	4,287.6	66.6342	4,287.6	71.1944	4,287.6	62.3765	4,287.6	65.8216	4,287.6	67.3456	4,287.6	67.8367	4,287.6	62.8437	4,287.6	73.9258	4,287.6	65.8144	4,287.6	65.1312	4,287.6	68.4504
4,438.48	90.9804	4,438.48	89.0315	4,438.48	91.5241	4,438.48	89.4291	4,438.48	89.1034	4,438.48	90.4205	4,438.48	90.0123	4,438.48	88.1019	4,438.48	91.1942	4,438.48	87.8394	4,438.48	82.7594	4,438.48	85.3337	4,438.48	86.6646	4,438.48	83.3886	4,438.48	87.1423	4,438.48	82.4772	4,438.48	88.6818	4,438.48	80.8618	4,438.48	81.5372	4,438.48	81.0323	4,438.48	74.6682	4,438.48	74.037	4,438.48	69.7007	4,438.48	76.2625	4,438.48	65.9408	4,438.48	68.5295	4,438.48	68.6439	4,438.48	60.4205	4,438.48	66.484	4,438.48	70.8099	4,438.48	65.7279	4,438.48	71.3809	4,438.48	71.3786	4,438.48	68.0023	4,438.48	72.4324	4,438.48	70.7889
4,595.21	90.9126	4,595.21	88.9981	4,595.21	91.6155	4,595.21	90.3684	4,595.21	89.1584	4,595.21	90.3572	4,595.21	90.104	4,595.21	88.0695	4,595.21	91.0208	4,595.21	87.4003	4,595.21	82.9964	4,595.21	85.679	4,595.21	84.6608	4,595.21	84.585	4,595.21	88.1111	4,595.21	82.6274	4,595.21	86.7398	4,595.21	81.6997	4,595.21	80.1093	4,595.21	78.5453	4,595.21	66.5412	4,595.21	79.8497	4,595.21	69.6231	4,595.21	70.7399	4,595.21	56.6669	4,595.21	70.6975	4,595.21	67.0862	4,595.21	56.2955	4,595.21	63.5469	4,595.21	60.8555	4,595.21	62.9814	4,595.21	67.4723	4,595.21	63.0326	4,595.21	67.4112	4,595.21	70.2035	4,595.21	71.5283
4,756.35	90.8078	4,756.35	89.3319	4,756.35	90.586	4,756.35	90.7616	4,756.35	89.6773	4,756.35	89.9358	4,756.35	89.5142	4,756.35	87.8386	4,756.35	90.5808	4,756.35	87.2145	4,756.35	83.9329	4,756.35	86.0495	4,756.35	83.5952	4,756.35	85.0841	4,756.35	87.7673	4,756.35	82.098	4,756.35	85.3333	4,756.35	79.9582	4,756.35	76.6534	4,756.35	78.2598	4,756.35	63.3929	4,756.35	73.6704	4,756.35	67.1338	4,756.35	70.5601	4,756.35	67.4061	4,756.35	57.8414	4,756.35	47.0577	4,756.35	70.2978	4,756.35	64.5652	4,756.35	56.9632	4,756.35	60.5944	4,756.35	68.1463	4,756.35	71.5098	4,756.35	65.4726	4,756.35	64.9225	4,756.35	71.105
4,924.8	91.6002	4,924.8	89.7394	4,924.8	91.1994	4,924.8	91.6957	4,924.8	90.1682	4,924.8	90.1315	4,924.8	88.8825	4,924.8	88.2024	4,924.8	91.3141	4,924.8	87.6192	4,924.8	85.7269	4,924.8	86.3565	4,924.8	82.9295	4,924.8	84.8044	4,924.8	85.3652	4,924.8	82.3571	4,924.8	83.5179	4,924.8	79.1142	4,924.8	81.8995	4,924.8	78.5624	4,924.8	71.7223	4,924.8	78.801	4,924.8	69.1981	4,924.8	72.2061	4,924.8	71.4539	4,924.8	69.9107	4,924.8	65.3165	4,924.8	62.748	4,924.8	68.5659	4,924.8	71.4197	4,924.8	65.9782	4,924.8	70.3766	4,924.8	69.0702	4,924.8	57.32	4,924.8	73.1162	4,924.8	65.122
5,097.66	91.4906	5,097.66	89.3057	5,097.66	90.0946	5,097.66	91.2617	5,097.66	90.8321	5,097.66	89.9588	5,097.66	88.9519	5,097.66	88.0853	5,097.66	90.996	5,097.66	87.8345	5,097.66	87.5347	5,097.66	85.5197	5,097.66	81.5537	5,097.66	84.4903	5,097.66	82.855	5,097.66	81.5463	5,097.66	83.2688	5,097.66	80.3465	5,097.66	82.7464	5,097.66	77.5712	5,097.66	68.9405	5,097.66	77.169	5,097.66	55.941	5,097.66	70.7173	5,097.66	64.4369	5,097.66	61.1913	5,097.66	71.8793	5,097.66	56.8281	5,097.66	61.9146	5,097.66	66.4231	5,097.66	62.518	5,097.66	57.9953	5,097.66	71.2633	5,097.66	62.2563	5,097.66	68.1455	5,097.66	67.0296
5,277.83	91.6121	5,277.83	89.976	5,277.83	90.6137	5,277.83	91.6455	5,277.83	90.4742	5,277.83	89.2984	5,277.83	88.9852	5,277.83	88.0407	5,277.83	90.5118	5,277.83	87.7068	5,277.83	89.2392	5,277.83	85.5236	5,277.83	79.9606	5,277.83	84.0167	5,277.83	84.3299	5,277.83	81.9057	5,277.83	85.6784	5,277.83	78.4473	5,277.83	79.7044	5,277.83	79.2202	5,277.83	62.5401	5,277.83	76.5332	5,277.83	69.0293	5,277.83	65.0248	5,277.83	66.3872	5,277.83	68.0921	5,277.83	63.7307	5,277.83	65.5544	5,277.83	69.7841	5,277.83	72.8797	5,277.83	67.1417	5,277.83	70.4509	5,277.83	59.5253	5,277.83	61.4941	5,277.83	67.4743	5,277.83	66.9292
5,463.87	91.4876	5,463.87	90.7945	5,463.87	90.6773	5,463.87	90.7896	5,463.87	90.3952	5,463.87	89.6982	5,463.87	89.8079	5,463.87	87.5222	5,463.87	89.6991	5,463.87	88.0833	5,463.87	90.6142	5,463.87	84.8115	5,463.87	80.8211	5,463.87	84.1291	5,463.87	85.2619	5,463.87	81.4827	5,463.87	83.9244	5,463.87	79.56	5,463.87	84.6085	5,463.87	76.548	5,463.87	71.2313	5,463.87	74.5985	5,463.87	67.2756	5,463.87	74.9768	5,463.87	64.3175	5,463.87	66.0678	5,463.87	69.022	5,463.87	69.4236	5,463.87	53.9397	5,463.87	67.8823	5,463.87	68.3421	5,463.87	60.316	5,463.87	66.5679	5,463.87	56.3788	5,463.87	65.4916	5,463.87	68.8354
5,657.23	91.6277	5,657.23	90.6248	5,657.23	90.7832	5,657.23	90.5877	5,657.23	89.5642	5,657.23	89.4996	5,657.23	89.6533	5,657.23	88.1168	5,657.23	89.7082	5,657.23	87.5475	5,657.23	90.5815	5,657.23	85.2972	5,657.23	77.4267	5,657.23	83.7806	5,657.23	85.0955	5,657.23	81.682	5,657.23	81.8586	5,657.23	78.8202	5,657.23	84.9375	5,657.23	75.8611	5,657.23	73.7058	5,657.23	79.0003	5,657.23	64.4305	5,657.23	70.385	5,657.23	57.279	5,657.23	61.9057	5,657.23	66.6272	5,657.23	62.1053	5,657.23	66.898	5,657.23	72.9992	5,657.23	65.7119	5,657.23	54.3093	5,657.23	68.3156	5,657.23	56.2158	5,657.23	70.405	5,657.23	52.252
5,856.45	91.2879	5,856.45	90.9878	5,856.45	90.802	5,856.45	90.4478	5,856.45	89.7086	5,856.45	89.8619	5,856.45	89.7582	5,856.45	88.2668	5,856.45	88.4291	5,856.45	87.0222	5,856.45	91.2854	5,856.45	85.6726	5,856.45	76.5009	5,856.45	83.1373	5,856.45	85.7105	5,856.45	81.6078	5,856.45	84.2408	5,856.45	79.4967	5,856.45	82.2792	5,856.45	76.9645	5,856.45	67.3551	5,856.45	75.2476	5,856.45	60.8765	5,856.45	67.6339	5,856.45	62.2971	5,856.45	71.7436	5,856.45	61.4113	5,856.45	67.6901	5,856.45	64.88	5,856.45	74.593	5,856.45	68.202	5,856.45	58.3488	5,856.45	69.9888	5,856.45	63.2291	5,856.45	67.4581	5,856.45	64.8679
6,062.99	91.4941	6,062.99	90.4331	6,062.99	91.2585	6,062.99	90.9007	6,062.99	89.7631	6,062.99	89.5974	6,062.99	89.9379	6,062.99	87.5009	6,062.99	86.595	6,062.99	86.955	6,062.99	89.8709	6,062.99	85.0449	6,062.99	76.7184	6,062.99	83.9228	6,062.99	84.1738	6,062.99	81.2587	6,062.99	83.6972	6,062.99	79.8428	6,062.99	81.1226	6,062.99	74.7684	6,062.99	54.8045	6,062.99	75.3752	6,062.99	62.4222	6,062.99	74.6381	6,062.99	58.6421	6,062.99	70.1015	6,062.99	69.4707	6,062.99	68.1152	6,062.99	64.1236	6,062.99	66.7196	6,062.99	65.3568	6,062.99	66.8598	6,062.99	68.3501	6,062.99	67.0572	6,062.99	60.882	6,062.99	66.2142
6,276.86	92.1766	6,276.86	90.7253	6,276.86	91.4053	6,276.86	91.1349	6,276.86	89.6371	6,276.86	89.0791	6,276.86	89.9563	6,276.86	87.1852	6,276.86	85.6159	6,276.86	86.9913	6,276.86	89.015	6,276.86	85.5783	6,276.86	80.9174	6,276.86	84.0744	6,276.86	83.7521	6,276.86	80.3228	6,276.86	82.8918	6,276.86	79.6297	6,276.86	83.144	6,276.86	72.7662	6,276.86	54.8296	6,276.86	76.3494	6,276.86	53.7752	6,276.86	73.2798	6,276.86	54.6694	6,276.86	59.7711	6,276.86	69.2742	6,276.86	66.7063	6,276.86	66.9519	6,276.86	68.4562	6,276.86	61.4711	6,276.86	66.3986	6,276.86	66.0546	6,276.86	62.6247	6,276.86	60.446	6,276.86	66.4111
6,498.05	92.1285	6,498.05	91.1893	6,498.05	91.3098	6,498.05	90.9663	6,498.05	90.4344	6,498.05	88.8381	6,498.05	89.2711	6,498.05	87.4164	6,498.05	86.5066	6,498.05	86.9057	6,498.05	88.144	6,498.05	85.2681	6,498.05	83.9897	6,498.05	82.8295	6,498.05	83.2781	6,498.05	79.6675	6,498.05	78.9516	6,498.05	78.4164	6,498.05	78.4642	6,498.05	73.3774	6,498.05	57.6032	6,498.05	77.841	6,498.05	41.2228	6,498.05	69.2513	6,498.05	52.5582	6,498.05	60.6475	6,498.05	67.8976	6,498.05	67.3289	6,498.05	65.6091	6,498.05	69.5275	6,498.05	61.9636	6,498.05	69.5062	6,498.05	63.7018	6,498.05	58.6505	6,498.05	61.3404	6,498.05	65.5364
6,726.56	91.5851	6,726.56	91.1149	6,726.56	91.4344	6,726.56	91.2247	6,726.56	90.7779	6,726.56	88.8193	6,726.56	88.8199	6,726.56	86.8046	6,726.56	87.7385	6,726.56	86.5615	6,726.56	87.6214	6,726.56	84.2267	6,726.56	83.9049	6,726.56	82.359	6,726.56	83.6931	6,726.56	79.9799	6,726.56	77.4823	6,726.56	76.4158	6,726.56	79.106	6,726.56	74.2954	6,726.56	70.1787	6,726.56	76.403	6,726.56	53.8126	6,726.56	67.4734	6,726.56	57.9648	6,726.56	65.6557	6,726.56	66.9896	6,726.56	59.7044	6,726.56	64.4959	6,726.56	68.198	6,726.56	63.4886	6,726.56	70.5495	6,726.56	58.4877	6,726.56	67.8447	6,726.56	64.9409	6,726.56	64.5619
6,963.87	91.9068	6,963.87	90.9232	6,963.87	91.4088	6,963.87	91.1217	6,963.87	90.7707	6,963.87	88.6387	6,963.87	88.8316	6,963.87	86.92	6,963.87	87.9494	6,963.87	86.3479	6,963.87	87.124	6,963.87	84.6397	6,963.87	85.0448	6,963.87	82.3067	6,963.87	81.218	6,963.87	80.4416	6,963.87	79.7367	6,963.87	76.1244	6,963.87	79.7794	6,963.87	73.6948	6,963.87	69.6142	6,963.87	75.9855	6,963.87	62.4141	6,963.87	67.7765	6,963.87	55.6851	6,963.87	64.0882	6,963.87	66.4558	6,963.87	67.3194	6,963.87	60.6373	6,963.87	62.7573	6,963.87	62.9393	6,963.87	63.6164	6,963.87	61.1212	6,963.87	69.1912	6,963.87	64.1214	6,963.87	56.7663
7,209.96	91.7021	7,209.96	91.1322	7,209.96	90.8649	7,209.96	90.7084	7,209.96	90.341	7,209.96	88.5327	7,209.96	89.2797	7,209.96	86.7521	7,209.96	87.8507	7,209.96	85.8943	7,209.96	86.7613	7,209.96	84.4519	7,209.96	85.6446	7,209.96	81.5078	7,209.96	79.8479	7,209.96	79.154	7,209.96	84.6942	7,209.96	75.3446	7,209.96	79.4624	7,209.96	73.8273	7,209.96	69.6593	7,209.96	75.309	7,209.96	67.8464	7,209.96	69.7764	7,209.96	60.1253	7,209.96	56.9264	7,209.96	66.852	7,209.96	65.3578	7,209.96	45.5299	7,209.96	69.7969	7,209.96	60.8028	7,209.96	57.8553	7,209.96	58.7285	7,209.96	66.982	7,209.96	61.8241	7,209.96	54.0259
7,464.84	91.1147	7,464.84	90.9281	7,464.84	90.3672	7,464.84	90.6851	7,464.84	89.7889	7,464.84	88.3181	7,464.84	89.4098	7,464.84	86.7263	7,464.84	86.9095	7,464.84	85.5298	7,464.84	86.5623	7,464.84	83.572	7,464.84	85.6577	7,464.84	80.931	7,464.84	80.4764	7,464.84	78.2197	7,464.84	81.5878	7,464.84	74.5415	7,464.84	78.96	7,464.84	70.5056	7,464.84	62.8475	7,464.84	74.1697	7,464.84	61.8706	7,464.84	69.4794	7,464.84	41.9995	7,464.84	56.0145	7,464.84	60.0539	7,464.84	66.9631	7,464.84	59.4953	7,464.84	73.1559	7,464.84	63.0721	7,464.84	68.1411	7,464.84	58.7295	7,464.84	64.8619	7,464.84	64.3758	7,464.84	56.4123
7,727.05	90.7242	7,727.05	90.5994	7,727.05	90.0829	7,727.05	90.0043	7,727.05	89.3232	7,727.05	88.6552	7,727.05	89.5078	7,727.05	85.8477	7,727.05	86.3087	7,727.05	85.376	7,727.05	85.868	7,727.05	82.8091	7,727.05	85.0571	7,727.05	81.1062	7,727.05	81.2822	7,727.05	78.2282	7,727.05	77.6781	7,727.05	75.6638	7,727.05	74.3205	7,727.05	71.2576	7,727.05	43.5977	7,727.05	72.4067	7,727.05	51.5687	7,727.05	72.6291	7,727.05	62.9605	7,727.05	68.601	7,727.05	67.1584	7,727.05	63.6901	7,727.05	65.2342	7,727.05	64.6689	7,727.05	62.4104	7,727.05	69.3303	7,727.05	57.7509	7,727.05	69.8657	7,727.05	61.0672	7,727.05	59.1706
7,999.51	90.1566	7,999.51	89.309	7,999.51	89.5665	7,999.51	89.9643	7,999.51	89.351	7,999.51	87.782	7,999.51	89.3557	7,999.51	85.7926	7,999.51	86.4693	7,999.51	84.6768	7,999.51	85.0307	7,999.51	82.4276	7,999.51	84.289	7,999.51	80.2771	7,999.51	76.1079	7,999.51	77.4206	7,999.51	80.5442	7,999.51	73.9809	7,999.51	78.7227	7,999.51	72.8318	7,999.51	64.035	7,999.51	67.0148	7,999.51	64.4855	7,999.51	64.5518	7,999.51	64.2717	7,999.51	68.5304	7,999.51	67.7327	7,999.51	58.0337	7,999.51	62.981	7,999.51	67.5163	7,999.51	46.8996	7,999.51	57.5785	7,999.51	62.8017	7,999.51	69.6953	7,999.51	62.7523	7,999.51	63.2463
8,282.23	89.6036	8,282.23	88.4528	8,282.23	89.3338	8,282.23	89.5831	8,282.23	88.9948	8,282.23	87.4223	8,282.23	88.3435	8,282.23	85.8962	8,282.23	85.6222	8,282.23	83.9453	8,282.23	83.0136	8,282.23	82.2377	8,282.23	82.745	8,282.23	79.6858	8,282.23	76.4152	8,282.23	77.7116	8,282.23	80.3062	8,282.23	73.5582	8,282.23	79.2425	8,282.23	72.2211	8,282.23	66.5888	8,282.23	70.6411	8,282.23	62.0066	8,282.23	65.4512	8,282.23	59.5481	8,282.23	50.5592	8,282.23	61.188	8,282.23	58.6669	8,282.23	60.2757	8,282.23	69.272	8,282.23	56.7203	8,282.23	71.8893	8,282.23	54.8165	8,282.23	65.6233	8,282.23	56.8657	8,282.23	55.2972
8,573.73	89.0168	8,573.73	87.7319	8,573.73	89.3347	8,573.73	88.6535	8,573.73	88.4736	8,573.73	87.8881	8,573.73	86.8094	8,573.73	84.6316	8,573.73	84.4831	8,573.73	83.2762	8,573.73	84.3069	8,573.73	82.6112	8,573.73	84.4131	8,573.73	79.9915	8,573.73	75.9388	8,573.73	77.8837	8,573.73	79.5049	8,573.73	73.8962	8,573.73	76.3931	8,573.73	69.3461	8,573.73	67.5925	8,573.73	71.2643	8,573.73	62.4611	8,573.73	69.0176	8,573.73	61.5142	8,573.73	68.6842	8,573.73	66.4299	8,573.73	57.8747	8,573.73	63.2446	8,573.73	61.1809	8,573.73	59.505	8,573.73	70.3095	8,573.73	55.7132	8,573.73	68.9138	8,573.73	41.032	8,573.73	55.0504
8,876.95	90.122	8,876.95	87.7539	8,876.95	90.1728	8,876.95	88.864	8,876.95	88.2309	8,876.95	87.0465	8,876.95	85.2181	8,876.95	84.6963	8,876.95	85.18	8,876.95	83.2406	8,876.95	85.6483	8,876.95	82.1826	8,876.95	84.7328	8,876.95	79.3928	8,876.95	76.6707	8,876.95	76.3184	8,876.95	78.3824	8,876.95	70.9488	8,876.95	76.7788	8,876.95	70.2027	8,876.95	68.9097	8,876.95	68.0683	8,876.95	64.49	8,876.95	63.3147	8,876.95	57.0156	8,876.95	61.2908	8,876.95	59.5348	8,876.95	54.1616	8,876.95	61.4806	8,876.95	65.7888	8,876.95	58.6499	8,876.95	65.1694	8,876.95	52.6613	8,876.95	66.7797	8,876.95	57.032	8,876.95	44.8644
9,188.96	90.917	9,188.96	88.8893	9,188.96	90.7871	9,188.96	88.9643	9,188.96	88.7706	9,188.96	86.9538	9,188.96	85.5595	9,188.96	84.5828	9,188.96	85.7073	9,188.96	82.7766	9,188.96	86.0161	9,188.96	81.8456	9,188.96	83.7105	9,188.96	77.6731	9,188.96	71.6306	9,188.96	74.7562	9,188.96	77.3658	9,188.96	71.4544	9,188.96	72.0065	9,188.96	68.8585	9,188.96	59.0444	9,188.96	65.9889	9,188.96	63.4702	9,188.96	65.0135	9,188.96	61.5626	9,188.96	68.9476	9,188.96	58.6448	9,188.96	50.3112	9,188.96	61.4868	9,188.96	69.9605	9,188.96	60.1939	9,188.96	72.7603	9,188.96	49.46	9,188.96	71.5199	9,188.96	43.5881	9,188.96	58.4448
9,514.16	92.0519	9,514.16	89.856	9,514.16	91.4364	9,514.16	89.5897	9,514.16	89.5717	9,514.16	86.8189	9,514.16	87.2776	9,514.16	84.3272	9,514.16	86.1508	9,514.16	82.7537	9,514.16	84.9549	9,514.16	80.3463	9,514.16	82.0628	9,514.16	76.6311	9,514.16	74.4329	9,514.16	72.0919	9,514.16	68.7488	9,514.16	68.3774	9,514.16	74.6883	9,514.16	54.7903	9,514.16	58.3296	9,514.16	69.3653	9,514.16	45.9496	9,514.16	65.7531	9,514.16	57.9059	9,514.16	70.0195	9,514.16	58.693	9,514.16	51.9534	9,514.16	59.9197	9,514.16	68.8907	9,514.16	50.3102	9,514.16	71.3673	9,514.16	57.538	9,514.16	72.2279	9,514.16	58.6589	9,514.16	65.147
9,849.61	92.6427	9,849.61	90.5714	9,849.61	91.8077	9,849.61	90.4659	9,849.61	90.0241	9,849.61	86.8259	9,849.61	88.3431	9,849.61	84.2223	9,849.61	85.8112	9,849.61	81.3575	9,849.61	83.5381	9,849.61	78.4596	9,849.61	80.1051	9,849.61	73.9871	9,849.61	74.3854	9,849.61	70.0789	9,849.61	67.2226	9,849.61	67.3223	9,849.61	70.644	9,849.61	60.4577	9,849.61	54.7998	9,849.61	65.7593	9,849.61	56.5463	9,849.61	47.5238	9,849.61	41.6937	9,849.61	65.685	9,849.61	49.845	9,849.61	59.3277	9,849.61	59.4635	9,849.61	70.7542	9,849.61	57.8978	9,849.61	72.5766	9,849.61	57.8056	9,849.61	72.3615	9,849.61	58.7564	9,849.61	59.6791
10,196.8	92.8678	10,196.8	91.0772	10,196.8	91.9944	10,196.8	90.6818	10,196.8	90.2511	10,196.8	87.1564	10,196.8	88.61	10,196.8	83.7383	10,196.8	85.6639	10,196.8	81.0426	10,196.8	82.5723	10,196.8	77.3427	10,196.8	78.4408	10,196.8	72.3368	10,196.8	71.779	10,196.8	68.7185	10,196.8	61.7785	10,196.8	65.338	10,196.8	69.3593	10,196.8	59.4026	10,196.8	43.4048	10,196.8	64.9837	10,196.8	54.006	10,196.8	58.7811	10,196.8	45.1009	10,196.8	68.9404	10,196.8	50.6228	10,196.8	55.3231	10,196.8	57.2211	10,196.8	71.3248	10,196.8	56.2664	10,196.8	74.0436	10,196.8	58.7027	10,196.8	71.6537	10,196.8	61.627	10,196.8	67.2248
10,555.7	92.9584	10,555.7	91.1028	10,555.7	91.9638	10,555.7	90.6745	10,555.7	90.3012	10,555.7	87.1681	10,555.7	88.4318	10,555.7	83.8369	10,555.7	85.6863	10,555.7	79.6996	10,555.7	81.3595	10,555.7	75.965	10,555.7	77.7126	10,555.7	70.7472	10,555.7	70.808	10,555.7	66.0636	10,555.7	67.7446	10,555.7	63.1959	10,555.7	67.3447	10,555.7	43.1999	10,555.7	55.1012	10,555.7	63.036	10,555.7	48.3449	10,555.7	52.3712	10,555.7	53.721	10,555.7	66.4842	10,555.7	44.3962	10,555.7	59.4677	10,555.7	40.2816	10,555.7	67.8865	10,555.7	53.9531	10,555.7	71.5921	10,555.7	54.7226	10,555.7	72.0568	10,555.7	52.0708	10,555.7	64.024
10,927.7	92.9576	10,927.7	91.1035	10,927.7	91.7393	10,927.7	90.5823	10,927.7	90.3698	10,927.7	87.0401	10,927.7	88.1535	10,927.7	83.149	10,927.7	85.2954	10,927.7	78.7561	10,927.7	80.3851	10,927.7	74.9516	10,927.7	76.3188	10,927.7	69.2994	10,927.7	67.0755	10,927.7	64.2641	10,927.7	64.7731	10,927.7	62.613	10,927.7	58.579	10,927.7	55.4547	10,927.7	49.8894	10,927.7	63.4937	10,927.7	52.5131	10,927.7	59.4047	10,927.7	50.6201	10,927.7	67.1752	10,927.7	48.6074	10,927.7	63.2989	10,927.7	50.7307	10,927.7	66.3536	10,927.7	53.5757	10,927.7	74.5929	10,927.7	56.4035	10,927.7	68.7432	10,927.7	59.292	10,927.7	64.837
11,313	92.9775	11,313	91.3042	11,313	91.7053	11,313	90.3507	11,313	90.2465	11,313	86.4755	11,313	87.7216	11,313	82.8231	11,313	84.2615	11,313	77.4582	11,313	78.77	11,313	73.6347	11,313	74.7855	11,313	67.9748	11,313	63.488	11,313	61.6098	11,313	66.0722	11,313	61.1439	11,313	60.4115	11,313	60.7516	11,313	45.8327	11,313	50.1897	11,313	48.1116	11,313	58.0658	11,313	54.4521	11,313	66.5968	11,313	56.6179	11,313	62.7823	11,313	56.0509	11,313	65.7875	11,313	54.9594	11,313	71.0913	11,313	48.0774	11,313	72.5693	11,313	58.0126	11,313	63.1743
11,712.9	93.2298	11,712.9	91.3184	11,712.9	91.7881	11,712.9	90.4735	11,712.9	90.2362	11,712.9	85.7598	11,712.9	87.4548	11,712.9	82.1177	11,712.9	83.6122	11,712.9	77.0742	11,712.9	78.3536	11,712.9	72.3001	11,712.9	74.3997	11,712.9	65.7288	11,712.9	64.1379	11,712.9	63.4454	11,712.9	66.5072	11,712.9	63.2897	11,712.9	58.505	11,712.9	59.8387	11,712.9	60.2732	11,712.9	60.1541	11,712.9	55.414	11,712.9	57.7173	11,712.9	55.331	11,712.9	63.2327	11,712.9	51.2789	11,712.9	66.6638	11,712.9	42.6584	11,712.9	64.4403	11,712.9	51.9678	11,712.9	74.139	11,712.9	63.0993	11,712.9	69.7989	11,712.9	60.8079	11,712.9	56.1118
12,126	93.7366	12,126	91.6218	12,126	92.1965	12,126	90.4051	12,126	90.439	12,126	86.0052	12,126	86.9915	12,126	81.4224	12,126	83.1837	12,126	76.8049	12,126	78.2861	12,126	71.4548	12,126	73.5939	12,126	67.1028	12,126	67.9183	12,126	64.4	12,126	61.3665	12,126	65.3085	12,126	56.5772	12,126	59.5487	12,126	58.2767	12,126	63.0367	12,126	55.8647	12,126	56.1335	12,126	46.4472	12,126	62.0187	12,126	53.1827	12,126	66.01	12,126	59.8102	12,126	60.9101	12,126	56.4094	12,126	74.3232	12,126	55.8547	12,126	73.6902	12,126	57.292	12,126	61.9111
12,553.7	93.8629	12,553.7	91.6689	12,553.7	92.1268	12,553.7	90.6645	12,553.7	90.9312	12,553.7	85.2527	12,553.7	86.7632	12,553.7	81.5308	12,553.7	81.5206	12,553.7	75.3902	12,553.7	78.196	12,553.7	69.7465	12,553.7	72.5375	12,553.7	68.3041	12,553.7	69.045	12,553.7	66.9911	12,553.7	65.0897	12,553.7	63.8903	12,553.7	60.6356	12,553.7	57.8234	12,553.7	61.7019	12,553.7	64.0742	12,553.7	45.0802	12,553.7	42.7323	12,553.7	60.9562	12,553.7	56.3876	12,553.7	58.5076	12,553.7	68.7754	12,553.7	59.4355	12,553.7	60.3389	12,553.7	47.6994	12,553.7	74.7087	12,553.7	64.4711	12,553.7	70.2107	12,553.7	58.7637	12,553.7	58.5903
12,996.1	93.6105	12,996.1	91.4291	12,996.1	91.6359	12,996.1	90.2793	12,996.1	90.5579	12,996.1	84.8622	12,996.1	87.0417	12,996.1	81.0654	12,996.1	81.2081	12,996.1	73.3226	12,996.1	78.2578	12,996.1	71.3687	12,996.1	73.0091	12,996.1	69.7368	12,996.1	72.3266	12,996.1	67.6528	12,996.1	64.5107	12,996.1	63.6126	12,996.1	60.3544	12,996.1	66.3685	12,996.1	60.7421	12,996.1	45.5647	12,996.1	61.1844	12,996.1	57.2556	12,996.1	60.6345	12,996.1	62.8015	12,996.1	61.5168	12,996.1	70.0719	12,996.1	61.7366	12,996.1	65.5728	12,996.1	59.3066	12,996.1	74.3039	12,996.1	54.8026	12,996.1	64.146	12,996.1	55.097	12,996.1	39.2321
13,454.6	92.9619	13,454.6	90.6064	13,454.6	90.9695	13,454.6	89.6848	13,454.6	89.9397	13,454.6	84.4597	13,454.6	86.4662	13,454.6	79.7411	13,454.6	80.8371	13,454.6	71.434	13,454.6	76.9978	13,454.6	73.1124	13,454.6	75.0581	13,454.6	71.4491	13,454.6	74.8926	13,454.6	68.3917	13,454.6	62.8879	13,454.6	63.5647	13,454.6	58.2147	13,454.6	65.3885	13,454.6	59.6573	13,454.6	58.4632	13,454.6	52.3885	13,454.6	65.3832	13,454.6	61.2532	13,454.6	67.8773	13,454.6	62.7142	13,454.6	70.0656	13,454.6	63.3359	13,454.6	63.6587	13,454.6	59.6542	13,454.6	73.9937	13,454.6	50.0998	13,454.6	59.6102	13,454.6	58.8641	13,454.6	52.7911
13,929.2	92.0306	13,929.2	90.2331	13,929.2	90.5012	13,929.2	89.2875	13,929.2	89.2361	13,929.2	84.6933	13,929.2	85.2479	13,929.2	79.5837	13,929.2	80.297	13,929.2	71.5067	13,929.2	76.9254	13,929.2	74.4481	13,929.2	76.3184	13,929.2	71.8776	13,929.2	75.1775	13,929.2	69.1846	13,929.2	61.6112	13,929.2	64.4331	13,929.2	55.2127	13,929.2	65.6813	13,929.2	58.6537	13,929.2	53.3546	13,929.2	56.0169	13,929.2	64.672	13,929.2	59.2845	13,929.2	67.8389	13,929.2	58.8187	13,929.2	66.3258	13,929.2	57.1514	13,929.2	70.1061	13,929.2	60.1079	13,929.2	73.0381	13,929.2	57.117	13,929.2	67.2778	13,929.2	59.293	13,929.2	52.8954
14,419.9	91.0448	14,419.9	89.8158	14,419.9	90.1665	14,419.9	88.9856	14,419.9	88.5203	14,419.9	84.4597	14,419.9	84.5943	14,419.9	79.3301	14,419.9	79.4913	14,419.9	72.6315	14,419.9	76.9276	14,419.9	74.5227	14,419.9	77.0922	14,419.9	73.0654	14,419.9	73.4806	14,419.9	68.7329	14,419.9	59.1566	14,419.9	65.4421	14,419.9	56.1775	14,419.9	64.3902	14,419.9	54.2217	14,419.9	52.5773	14,419.9	59.2278	14,419.9	64.0507	14,419.9	59.0357	14,419.9	68.1508	14,419.9	46.9629	14,419.9	65.2849	14,419.9	58.2514	14,419.9	67.8579	14,419.9	57.4937	14,419.9	70.8528	14,419.9	56.9731	14,419.9	67.5337	14,419.9	55.2788	14,419.9	56.3991
14,928.2	90.433	14,928.2	89.4712	14,928.2	89.8392	14,928.2	88.9441	14,928.2	87.9903	14,928.2	83.371	14,928.2	84.4556	14,928.2	78.8558	14,928.2	78.9671	14,928.2	73.9481	14,928.2	75.8046	14,928.2	73.9265	14,928.2	76.5883	14,928.2	72.5002	14,928.2	72.0541	14,928.2	67.7359	14,928.2	66.4371	14,928.2	65.2078	14,928.2	57.3501	14,928.2	57.8566	14,928.2	26.657	14,928.2	62.5706	14,928.2	58.4735	14,928.2	58.8071	14,928.2	60.1334	14,928.2	65.5693	14,928.2	57.3713	14,928.2	60.6874	14,928.2	52.2837	14,928.2	68.2288	14,928.2	52.2404	14,928.2	73.6004	14,928.2	52.3317	14,928.2	67.0614	14,928.2	54.5307	14,928.2	57.5134
15,455.6	90.1678	15,455.6	89.1365	15,455.6	89.6807	15,455.6	88.1726	15,455.6	87.5955	15,455.6	81.6459	15,455.6	84.3491	15,455.6	77.7289	15,455.6	78.3414	15,455.6	73.6637	15,455.6	73.3367	15,455.6	74.1552	15,455.6	76.5731	15,455.6	71.8155	15,455.6	67.5694	15,455.6	67.9158	15,455.6	66.5906	15,455.6	61.2634	15,455.6	43.8517	15,455.6	61.6398	15,455.6	53.8139	15,455.6	50.9095	15,455.6	50.8443	15,455.6	62.2248	15,455.6	49.8145	15,455.6	65.8785	15,455.6	56.1817	15,455.6	59.9613	15,455.6	41.335	15,455.6	65.494	15,455.6	42.7267	15,455.6	65.8998	15,455.6	51.3022	15,455.6	61.9696	15,455.6	51.1946	15,455.6	51.5712
16,000.5	90.1311	16,000.5	88.8064	16,000.5	89.2839	16,000.5	87.9174	16,000.5	86.7932	16,000.5	79.3169	16,000.5	82.9671	16,000.5	77.0447	16,000.5	78.2354	16,000.5	75.541	16,000.5	73.6034	16,000.5	74.2329	16,000.5	75.5453	16,000.5	72.2874	16,000.5	69.3243	16,000.5	68.4	16,000.5	64.5967	16,000.5	66.5838	16,000.5	43.4926	16,000.5	61.1726	16,000.5	55.6986	16,000.5	59.9831	16,000.5	52.12	16,000.5	40.7822	16,000.5	49.5625	16,000.5	59.411	16,000.5	50.2468	16,000.5	49.0405	16,000.5	50.0282	16,000.5	65.9905	16,000.5	52.0697	16,000.5	68.5466	16,000.5	54.03	16,000.5	57.7472	16,000.5	54.7181	16,000.5	44.2091
16,564.5	90.1236	16,564.5	88.3703	16,564.5	88.7852	16,564.5	87.0302	16,564.5	86.4077	16,564.5	77.5915	16,564.5	82.1246	16,564.5	77.2687	16,564.5	78.0103	16,564.5	75.9449	16,564.5	74.4199	16,564.5	75.4871	16,564.5	74.9382	16,564.5	73.1213	16,564.5	67.0882	16,564.5	69.514	16,564.5	61.0509	16,564.5	66.2864	16,564.5	48.6299	16,564.5	60.0199	16,564.5	58.5498	16,564.5	56.5395	16,564.5	54.6898	16,564.5	56.5935	16,564.5	57.6908	16,564.5	58.098	16,564.5	48.2577	16,564.5	53.0182	16,564.5	54.3867	16,564.5	67.6337	16,564.5	46.9755	16,564.5	63.6154	16,564.5	53.0797	16,564.5	55.0556	16,564.5	40.8803	16,564.5	52.6091
17,148.9	89.919	17,148.9	87.8779	17,148.9	88.0746	17,148.9	86.2503	17,148.9	86.0582	17,148.9	76.6067	17,148.9	81.7958	17,148.9	77.1904	17,148.9	77.8774	17,148.9	75.6133	17,148.9	74.4272	17,148.9	75.9583	17,148.9	73.0696	17,148.9	73.4609	17,148.9	67.2564	17,148.9	69.2272	17,148.9	61.281	17,148.9	64.38	17,148.9	48.9608	17,148.9	60.0461	17,148.9	58.4411	17,148.9	55.2745	17,148.9	57.6069	17,148.9	56.6862	17,148.9	58.7507	17,148.9	55.0383	17,148.9	54.8923	17,148.9	58.0808	17,148.9	59.3402	17,148.9	66.2797	17,148.9	47.9669	17,148.9	62.695	17,148.9	50.2827	17,148.9	54.8591	17,148.9	48.3327	17,148.9	44.5246
17,752.4	89.3237	17,752.4	87.1966	17,752.4	87.3706	17,752.4	85.276	17,752.4	85.2348	17,752.4	75.6667	17,752.4	81.6613	17,752.4	76.9922	17,752.4	78.097	17,752.4	75.0731	17,752.4	74.4499	17,752.4	75.4196	17,752.4	71.013	17,752.4	72.2057	17,752.4	66.1039	17,752.4	66.8556	17,752.4	60.8865	17,752.4	60.8751	17,752.4	40.0925	17,752.4	59.5945	17,752.4	55.7879	17,752.4	50.4631	17,752.4	55.7822	17,752.4	53.4359	17,752.4	52.5642	17,752.4	53.9192	17,752.4	52.9093	17,752.4	61.6132	17,752.4	52.8767	17,752.4	65.4393	17,752.4	50.525	17,752.4	66.5798	17,752.4	57.4144	17,752.4	55.9194	17,752.4	52.8077	17,752.4	44.5304
18,379.4	88.676	18,379.4	86.4038	18,379.4	86.8158	18,379.4	84.0658	18,379.4	84.4306	18,379.4	74.5517	18,379.4	81.2427	18,379.4	75.9915	18,379.4	78.0191	18,379.4	74.2206	18,379.4	74.0167	18,379.4	74.1045	18,379.4	68.7194	18,379.4	69.883	18,379.4	63.5953	18,379.4	64.5807	18,379.4	60.0849	18,379.4	55.892	18,379.4	47.3499	18,379.4	57.5815	18,379.4	53.1433	18,379.4	43.0887	18,379.4	52.0384	18,379.4	53.5418	18,379.4	52.0764	18,379.4	47.177	18,379.4	40.928	18,379.4	60.0428	18,379.4	47.726	18,379.4	63.0151	18,379.4	44.8537	18,379.4	68.0124	18,379.4	55.8312	18,379.4	57.4196	18,379.4	53.6308	18,379.4	40.0037
19,026.9	88.0395	19,026.9	85.3466	19,026.9	86.1654	19,026.9	82.2547	19,026.9	83.9817	19,026.9	72.8518	19,026.9	81.0902	19,026.9	74.3146	19,026.9	77.2761	19,026.9	73.307	19,026.9	72.3005	19,026.9	71.4865	19,026.9	67.8761	19,026.9	67.0449	19,026.9	61.8776	19,026.9	60.7862	19,026.9	61.4983	19,026.9	52.2024	19,026.9	50.3233	19,026.9	52.1988	19,026.9	53.8622	19,026.9	43.5106	19,026.9	56.4675	19,026.9	43.5542	19,026.9	53.8854	19,026.9	53.5	19,026.9	55.1773	19,026.9	62.8374	19,026.9	52.9095	19,026.9	61.5463	19,026.9	50.5852	19,026.9	68.8612	19,026.9	41.5192	19,026.9	57.0995	19,026.9	48.2842	19,026.9	51.1713
19,697.8	87.1659	19,697.8	83.9074	19,697.8	85.8802	19,697.8	80.4009	19,697.8	84.0955	19,697.8	70.939	19,697.8	81.3052	19,697.8	72.2466	19,697.8	77.1799	19,697.8	70.9656	19,697.8	70.8246	19,697.8	68.9072	19,697.8	65.8419	19,697.8	61.5419	19,697.8	63.8073	19,697.8	55.6577	19,697.8	62.5406	19,697.8	47.3901	19,697.8	43.4471	19,697.8	49.7164	19,697.8	51.1286	19,697.8	46.8696	19,697.8	54.4302	19,697.8	51.5444	19,697.8	49.6368	19,697.8	47.7055	19,697.8	54.1303	19,697.8	59.2529	19,697.8	41.6108	19,697.8	60.855	19,697.8	42.4576	19,697.8	67.3307	19,697.8	37.6473	19,697.8	45.2009	19,697.8	51.5722	19,697.8	50.1443
19,999.5	87.2416	19,999.5	83.1559	19,999.5	85.5484	19,999.5	79.7528	19,999.5	83.6304	19,999.5	68.4515	19,999.5	81.7786	19,999.5	71.0705	19,999.5	77.4252	19,999.5	70.4857	19,999.5	66.2145	19,999.5	66.9974	19,999.5	68.5799	19,999.5	59.7728	19,999.5	68.87	19,999.5	47.2985	19,999.5	63.8077	19,999.5	53.9037	19,999.5	59.8976	19,999.5	59.4899	19,999.5	61.6494	19,999.5	44.5217	19,999.5	54.8241	19,999.5	53.6205	19,999.5	58.99	19,999.5	61.3586	19,999.5	51.3589	19,999.5	59.5073	19,999.5	61.0565	19,999.5	55.097	19,999.5	49.6616	19,999.5	68.9007	19,999.5	48.5272	19,999.5	57.0688	19,999.5	54.5729	19,999.5	34.464
